![3] TM7100AS.19A TM7110AS.50A TM7111AS.25A
10.00 11 9 51
10.02 10 21 58
10.04 14 16 50
10.06 14 19 60
10.08 8 18 62
10.10 16 13 63
10.12 11 14 56
10.14 15 16 65
10.16 12 15 63
10.18 10 15 66
10.20 12 19 57
10.22 10 15 59
10.24 11 21 75
10.26 11 27 73
10.28 8 15 89
10.30 11 23 71
10.32 9 20 66
10.34 19 24 72
10.36 12 20 58
10.38 17 24 79
10.40 17 20 64
10.42 7 19 74
10.44 12 18 78
10.46 12 26 85
10.48 6 32 83
10.50 10 24 76
10.52 10 24 63
10.54 15 23 84
10.56 7 21 78
10.58 9 24 74
10.60 9 23 100
10.62 16 26 89
10.64 13 17 103
10.66 12 18 87
10.68 14 20 93
10.70 14 22 94
10.72 15 27 72
10.74 13 24 74
10.76 14 15 108
10.78 9 17 115
10.80 10 17 112
10.82 18 24 105
10.84 9 20 92
10.86 10 23 106
10.88 9 16 100
10.90 11 10 103
10.92 19 14 100
10.94 19 8 134
10.96 7 6 115
10.98 17 8 119
11.00 6 17 140
11.02 13 7 137
11.04 21 18 126
11.06 16 10 109
11.08 13 15 127
11.10 8 12 152
11.12 10 12 152
11.14 6 8 143
11.16 4 10 141
11.18 15 6 135
11.20 8 19 144
11.22 12 5 137
11.24 12 11 144
11.26 9 12 130
11.28 12 11 160
11.30 13 8 167
11.32 18 5 141
11.34 20 13 141
11.36 14 6 148
11.38 12 11 146
11.40 9 10 185
11.42 11 14 141
11.44 12 14 178
11.46 11 22 153
11.48 13 13 168
11.50 18 11 183
11.52 8 10 177
11.54 10 15 167
11.56 6 21 156
11.58 8 14 186
11.60 10 17 193
11.62 9 10 189
11.64 8 9 185
11.66 11 15 211
11.68 11 13 177
11.70 16 12 253
11.72 10 10 223
11.74 8 13 208
11.76 15 16 205
11.78 17 10 219
11.80 11 9 214
11.82 8 11 229
11.84 17 8 235
11.86 14 12 212
11.88 12 13 233
11.90 11 15 249
11.92 12 14 232
11.94 11 6 255
11.96 7 12 256
11.98 13 4 240
12.00 16 13 225
12.02 9 11 248
12.04 7 12 243
12.06 7 10 240
12.08 9 12 243
12.10 16 14 281
12.12 17 12 249
12.14 10 15 263
12.16 8 12 280
12.18 10 15 254
12.20 14 11 267
12.22 12 13 284
12.24 11 16 290
12.26 12 11 250
12.28 6 12 278
12.30 11 6 296
12.32 15 14 297
12.34 14 7 336
12.36 7 15 297
12.38 10 8 290
12.40 6 10 290
12.42 18 11 320
12.44 10 10 338
12.46 11 12 305
12.48 16 10 306
12.50 13 14 293
12.52 15 10 337
12.54 12 17 340
12.56 10 7 302
12.58 8 15 351
12.60 17 12 358
12.62 17 10 317
12.64 9 10 350
12.66 18 13 306
12.68 11 8 365
12.70 12 10 358
12.72 9 12 381
12.74 15 10 348
12.76 9 13 383
12.78 7 19 383
12.80 7 17 364
12.82 18 12 350
12.84 8 11 379
12.86 12 8 387
12.88 17 10 399
12.90 9 12 380
12.92 17 13 423
12.94 3 13 386
12.96 7 14 369
12.98 14 14 364
13.00 11 6 359
13.02 12 17 413
13.04 12 6 406
13.06 9 7 405
13.08 18 13 395
13.10 16 10 454
13.12 16 9 420
13.14 12 9 376
13.16 13 15 402
13.18 6 14 400
13.20 15 10 423
13.22 16 9 415
13.24 11 11 382
13.26 21 9 438
13.28 10 13 450
13.30 10 17 440
13.32 10 7 446
13.34 13 11 429
13.36 14 10 484
13.38 14 17 442
13.40 10 9 465
13.42 16 15 458
13.44 9 11 478
13.46 11 13 467
13.48 7 15 429
13.50 12 11 465
13.52 12 16 399
13.54 12 13 445
13.56 10 11 460
13.58 15 15 467
13.60 11 15 467
13.62 12 18 458
13.64 7 15 512
13.66 17 9 430
13.68 12 12 510
13.70 23 15 478
13.72 17 13 453
13.74 12 11 520
13.76 12 19 496
13.78 17 17 490
13.80 12 11 505
13.82 11 7 482
13.84 10 11 509
13.86 20 13 480
13.88 11 18 520
13.90 13 16 482
13.92 8 13 540
13.94 10 15 502
13.96 15 18 544
13.98 14 12 515
14.00 8 17 566
14.02 17 16 537
14.04 11 21 525
14.06 10 12 534
14.08 15 13 531
14.10 14 13 531
14.12 15 19 556
14.14 14 17 529
14.16 15 13 511
14.18 12 16 537
14.20 9 11 515
14.22 17 17 534
14.24 21 7 530
14.26 16 10 550
14.28 13 15 547
14.30 25 17 501
14.32 22 15 555
14.34 24 13 567
14.36 26 18 503
14.38 26 15 544
14.40 33 19 539
14.42 30 13 554
14.44 36 17 632
14.46 23 13 537
14.48 18 14 581
14.50 26 16 528
14.52 44 21 510
14.54 30 10 564
14.56 30 26 549
14.58 41 18 572
14.60 47 15 572
14.62 39 14 598
14.64 38 10 583
14.66 49 16 550
14.68 48 19 550
14.70 45 20 601
14.72 28 17 562
14.74 42 15 609
14.76 35 13 588
14.78 44 17 591
14.80 37 11 576
14.82 49 11 545
14.84 36 15 634
14.86 45 11 613
14.88 37 6 608
14.90 45 16 579
14.92 42 19 569
14.94 47 14 539
14.96 52 14 581
14.98 44 14 595
15.00 46 14 540
15.02 36 17 556
15.04 45 20 631
15.06 49 14 558
15.08 36 13 590
15.10 47 26 522
15.12 41 23 571
15.14 53 19 595
15.16 47 17 620
15.18 41 24 569
15.20 55 22 510
15.22 41 19 565
15.24 31 18 540
15.26 29 16 580
15.28 38 15 585
15.30 49 18 551
15.32 58 18 538
15.34 35 22 572
15.36 33 20 575
15.38 37 18 576
15.40 32 13 558
15.42 25 21 564
15.44 22 17 568
15.46 26 17 496
15.48 21 13 557
15.50 21 14 542
15.52 22 17 575
15.54 15 15 537
15.56 16 22 540
15.58 10 14 557
15.60 12 22 533
15.62 11 19 567
15.64 14 15 544
15.66 12 19 588
15.68 12 17 562
15.70 10 14 577
15.72 18 14 576
15.74 18 21 528
15.76 16 20 560
15.78 17 21 551
15.80 13 21 554
15.82 23 10 516
15.84 8 23 563
15.86 11 30 569
15.88 13 26 515
15.90 17 17 516
15.92 11 17 551
15.94 13 30 551
15.96 13 16 593
15.98 12 18 497
16.00 16 28 515
16.02 16 24 552
16.04 11 13 579
16.06 12 20 528
16.08 15 30 541
16.10 10 19 501
16.12 13 18 503
16.14 10 15 500
16.16 15 20 513
16.18 14 19 534
16.20 8 24 497
16.22 12 22 520
16.24 13 27 506
16.26 12 17 532
16.28 15 20 489
16.30 15 20 540
16.32 14 19 497
16.34 16 22 538
16.36 20 20 493
16.38 11 31 490
16.40 19 33 509
16.42 8 17 537
16.44 20 25 490
16.46 15 17 459
16.48 15 17 465
16.50 18 21 497
16.52 14 18 461
16.54 14 36 462
16.56 17 23 512
16.58 15 29 476
16.60 14 28 478
16.62 18 35 443
16.64 12 19 490
16.66 17 19 473
16.68 10 33 485
16.70 18 27 452
16.72 9 19 470
16.74 14 31 457
16.76 8 29 459
16.78 14 18 484
16.80 23 24 500
16.82 11 32 464
16.84 11 26 477
16.86 9 24 467
16.88 19 29 443
16.90 18 33 463
16.92 19 25 433
16.94 20 35 449
16.96 11 28 440
16.98 11 31 477
17.00 11 31 483
17.02 15 37 459
17.04 13 33 467
17.06 21 25 454
17.08 19 22 449
17.10 17 30 430
17.12 15 36 414
17.14 12 41 442
17.16 18 45 458
17.18 17 39 414
17.20 11 38 406
17.22 13 30 448
17.24 14 25 473
17.26 21 26 458
17.28 12 35 427
17.30 19 28 452
17.32 13 35 440
17.34 15 29 422
17.36 19 36 442
17.38 24 34 392
17.40 19 35 406
17.42 11 30 392
17.44 12 36 408
17.46 13 35 380
17.48 15 37 389
17.50 15 37 404
17.52 13 34 387
17.54 15 43 408
17.56 15 44 382
17.58 8 38 385
17.60 15 33 405
17.62 18 34 361
17.64 14 40 407
17.66 13 51 397
17.68 9 34 365
17.70 13 41 388
17.72 24 34 361
17.74 9 32 343
17.76 12 45 401
17.78 12 51 343
17.80 9 35 349
17.82 23 34 372
17.84 12 41 358
17.86 10 31 344
17.88 17 38 355
17.90 11 46 355
17.92 15 46 360
17.94 25 36 395
17.96 21 37 340
17.98 15 45 348
18.00 20 37 350
18.02 19 51 363
18.04 16 34 352
18.06 14 50 322
18.08 13 47 339
18.10 22 39 319
18.12 17 40 340
18.14 13 62 336
18.16 15 39 351
18.18 25 48 326
18.20 17 57 360
18.22 14 50 337
18.24 14 58 327
18.26 13 38 310
18.28 16 44 309
18.30 16 49 302
18.32 20 52 311
18.34 13 57 282
18.36 13 48 310
18.38 20 59 292
18.40 22 48 318
18.42 8 57 300
18.44 14 59 331
18.46 10 56 298
18.48 15 48 276
18.50 12 58 284
18.52 16 55 291
18.54 20 53 260
18.56 20 57 284
18.58 13 54 286
18.60 17 58 274
18.62 25 56 274
18.64 13 62 258
18.66 23 64 254
18.68 18 62 295
18.70 12 57 294
18.72 15 44 260
18.74 13 64 277
18.76 19 69 282
18.78 14 67 273
18.80 25 60 259
18.82 17 62 286
18.84 11 66 257
18.86 12 62 250
18.88 8 65 266
18.90 19 60 241
18.92 14 51 250
18.94 18 73 246
18.96 17 63 266
18.98 12 57 251
19.00 16 75 215
19.02 20 55 237
19.04 18 60 265
19.06 19 71 248
19.08 17 80 234
19.10 16 57 236
19.12 11 64 288
19.14 15 59 216
19.16 17 66 255
19.18 12 60 269
19.20 19 94 239
19.22 12 84 254
19.24 19 78 236
19.26 20 81 238
19.28 14 50 258
19.30 17 74 254
19.32 13 90 246
19.34 13 82 226
19.36 20 61 234
19.38 20 70 229
19.40 12 78 234
19.42 18 97 201
19.44 25 69 244
19.46 23 71 212
19.48 18 88 218
19.50 13 90 196
19.52 15 82 203
19.54 22 90 221
19.56 8 62 183
19.58 23 87 191
19.60 15 63 190
19.62 16 96 182
19.64 19 91 199
19.66 26 87 189
19.68 21 84 209
19.70 16 81 166
19.72 16 93 202
19.74 19 75 167
19.76 22 103 175
19.78 16 119 159
19.80 19 104 241
19.82 14 87 231
19.84 19 103 258
19.86 10 103 269
19.88 17 114 222
19.90 21 75 249
19.92 16 97 211
19.94 21 90 197
19.96 15 103 190
19.98 24 104 166
20.00 19 90 179
20.02 18 118 169
20.04 22 105 169
20.06 23 106 158
20.08 19 95 171
20.10 14 103 161
20.12 20 106 151
20.14 21 99 153
20.16 18 101 140
20.18 20 111 139
20.20 17 100 153
20.22 14 106 136
20.24 25 106 131
20.26 23 109 154
20.28 13 103 130
20.30 18 95 137
20.32 21 101 132
20.34 21 108 140
20.36 25 128 142
20.38 25 122 151
20.40 22 109 133
20.42 15 102 139
20.44 19 120 141
20.46 14 113 137
20.48 22 133 149
20.50 17 120 142
20.52 16 136 143
20.54 13 123 143
20.56 25 115 153
20.58 15 126 132
20.60 22 120 140
20.62 20 121 138
20.64 28 131 116
20.66 31 119 131
20.68 14 114 117
20.70 15 137 150
20.72 26 138 142
20.74 30 124 137
20.76 16 135 111
20.78 20 133 111
20.80 17 123 120
20.82 20 130 127
20.84 22 106 118
20.86 29 151 115
20.88 22 131 92
20.90 18 144 118
20.92 17 126 117
20.94 14 144 105
20.96 22 143 102
20.98 21 122 115
21.00 18 145 123
21.02 25 139 108
21.04 27 141 107
21.06 16 122 95
21.08 19 135 127
21.10 23 128 108
21.12 24 132 96
21.14 24 118 122
21.16 29 143 106
21.18 32 140 87
21.20 23 143 75
21.22 16 134 100
21.24 32 116 110
21.26 24 157 94
21.28 26 123 100
21.30 21 139 92
21.32 22 151 105
21.34 35 132 94
21.36 14 149 96
21.38 25 158 81
21.40 34 140 86
21.42 23 130 79
21.44 34 171 78
21.46 17 135 83
21.48 31 139 89
21.50 33 153 93
21.52 30 146 88
21.54 18 159 86
21.56 23 156 92
21.58 19 120 92
21.60 26 147 103
21.62 23 158 91
21.64 35 135 77
21.66 29 139 93
21.68 31 150 86
21.70 26 175 64
21.72 29 150 76
21.74 35 139 90
21.76 26 150 79
21.78 27 169 65
21.80 27 201 77
21.82 28 188 79
21.84 32 155 68
21.86 33 159 76
21.88 32 168 74
21.90 24 155 72
21.92 25 153 72
21.94 23 155 69
21.96 31 147 64
21.98 36 148 78
22.00 32 166 81
22.02 33 182 69
22.04 33 174 70
22.06 27 143 68
22.08 33 157 83
22.10 30 163 69
22.12 23 158 46
22.14 27 166 67
22.16 31 161 55
22.18 38 162 83
22.20 31 169 86
22.22 30 170 65
22.24 26 158 74
22.26 33 172 58
22.28 28 150 65
22.30 22 180 49
22.32 36 186 61
22.34 31 171 67
22.36 35 181 47
22.38 38 170 59
22.40 36 166 69
22.42 38 187 54
22.44 41 178 60
22.46 44 157 61
22.48 35 176 67
22.50 35 178 61
22.52 35 180 80
22.54 28 180 87
22.56 34 169 103
22.58 41 204 114
22.60 38 180 128
22.62 38 181 99
22.64 40 175 66
22.66 32 180 69
22.68 33 167 51
22.70 33 174 56
22.72 37 164 49
22.74 27 179 40
22.76 33 197 46
22.78 34 172 67
22.80 34 182 46
22.82 31 186 65
22.84 29 169 52
22.86 25 179 46
22.88 36 164 52
22.90 48 162 62
22.92 39 186 71
22.94 30 181 80
22.96 41 186 52
22.98 21 171 47
23.00 35 175 38
23.02 32 191 37
23.04 44 164 45
23.06 39 181 45
23.08 32 179 35
23.10 46 171 52
23.12 40 192 48
23.14 35 174 37
23.16 39 191 36
23.18 32 188 70
23.20 30 182 66
23.22 37 164 88
23.24 36 180 120
23.26 29 184 119
23.28 31 201 135
23.30 39 170 145
23.32 36 201 87
23.34 45 189 58
23.36 35 201 54
23.38 39 212 29
23.40 28 208 35
23.42 44 215 50
23.44 37 207 42
23.46 29 203 38
23.48 41 220 45
23.50 30 199 28
23.52 40 198 45
23.54 32 183 42
23.56 42 201 35
23.58 39 203 41
23.60 40 224 35
23.62 46 229 37
23.64 57 190 36
23.66 44 205 50
23.68 49 206 40
23.70 32 176 32
23.72 53 203 35
23.74 50 196 32
23.76 49 176 26
23.78 43 220 29
23.80 38 156 35
23.82 42 209 39
23.84 47 174 26
23.86 40 221 23
23.88 41 184 20
23.90 55 184 36
23.92 42 221 33
23.94 46 201 28
23.96 55 216 28
23.98 61 194 28
24.00 43 220 34
24.02 50 185 31
24.04 45 209 27
24.06 47 196 33
24.08 54 215 31
24.10 50 212 31
24.12 51 199 26
24.14 51 205 25
24.16 49 224 30
24.18 45 206 25
24.20 59 206 22
24.22 36 183 31
24.24 55 202 27
24.26 42 192 26
24.28 64 217 18
24.30 54 186 18
24.32 40 228 27
24.34 43 195 24
24.36 60 206 20
24.38 49 199 36
24.40 50 188 24
24.42 42 193 20
24.44 48 222 20
24.46 44 194 17
24.48 48 216 22
24.50 56 191 24
24.52 69 208 24
24.54 56 198 20
24.56 57 219 19
24.58 59 226 18
24.60 44 209 24
24.62 57 188 19
24.64 61 217 14
24.66 47 177 17
24.68 54 197 23
24.70 59 195 21
24.72 51 190 13
24.74 53 202 23
24.76 71 207 27
24.78 61 174 9
24.80 63 211 15
24.82 64 217 16
24.84 64 211 21
24.86 61 174 26
24.88 78 182 20
24.90 59 203 26
24.92 58 189 33
24.94 73 218 18
24.96 60 207 15
24.98 77 226 26
25.00 67 198 28
25.02 44 213 21
25.04 74 209 34
25.06 69 202 38
25.08 60 193 47
25.10 70 185 62
25.12 59 186 66
25.14 80 200 65
25.16 78 177 88
25.18 63 171 80
25.20 65 216 66
25.22 55 207 90
25.24 75 204 105
25.26 72 199 327
25.28 57 217 694
25.30 56 224 1235
25.32 66 208 1514
25.34 66 191 1593
25.36 84 221 1468
25.38 80 197 984
25.40 67 187 368
25.42 79 213 178
25.44 69 215 113
25.46 80 204 88
25.48 85 199 72
25.50 81 189 73
25.52 70 183 65
25.54 94 181 53
25.56 73 205 50
25.58 70 186 51
25.60 80 219 49
25.62 77 175 48
25.64 70 205 44
25.66 77 196 48
25.68 87 189 42
25.70 69 191 46
25.72 71 185 38
25.74 88 189 30
25.76 80 205 31
25.78 76 182 33
25.80 97 185 40
25.82 76 207 51
25.84 73 196 45
25.86 94 210 43
25.88 79 190 41
25.90 80 198 39
25.92 97 186 41
25.94 74 199 35
25.96 73 202 36
25.98 73 185 35
26.00 97 193 33
26.02 89 215 44
26.04 83 186 52
26.06 87 201 47
26.08 103 185 41
26.10 102 221 49
26.12 101 205 41
26.14 88 215 46
26.16 83 191 48
26.18 90 152 48
26.20 90 184 51
26.22 109 188 53
26.24 100 219 43
26.26 94 209 62
26.28 90 189 55
26.30 112 214 58
26.32 102 184 64
26.34 83 204 47
26.36 82 203 51
26.38 94 193 44
26.40 105 197 49
26.42 95 185 48
26.44 84 182 37
26.46 95 184 38
26.48 85 187 34
26.50 78 200 45
26.52 114 180 43
26.54 97 178 43
26.56 107 200 29
26.58 116 166 34
26.60 104 177 27
26.62 117 185 31
26.64 109 188 40
26.66 91 184 23
26.68 111 196 34
26.70 122 210 27
26.72 117 166 23
26.74 116 206 22
26.76 100 172 25
26.78 92 175 29
26.80 104 201 27
26.82 120 189 34
26.84 125 189 35
26.86 97 201 47
26.88 121 165 53
26.90 95 193 60
26.92 112 200 62
26.94 99 202 56
26.96 106 178 53
26.98 104 181 49
27.00 119 169 37
27.02 108 189 41
27.04 137 151 36
27.06 113 196 60
27.08 106 176 115
27.10 106 143 186
27.12 114 159 257
27.14 131 184 385
27.16 100 198 438
27.18 101 188 438
27.20 119 179 485
27.22 111 179 489
27.24 116 161 488
27.26 124 186 444
27.28 127 193 439
27.30 120 166 464
27.32 130 163 468
27.34 128 167 438
27.36 107 173 468
27.38 116 205 435
27.40 127 170 432
27.42 136 150 464
27.44 137 168 451
27.46 127 193 459
27.48 134 151 489
27.50 118 182 461
27.52 114 179 472
27.54 134 175 447
27.56 128 173 456
27.58 115 187 480
27.60 147 162 437
27.62 154 157 454
27.64 141 188 438
27.66 132 169 484
27.68 129 167 531
27.70 128 176 527
27.72 124 151 543
27.74 139 148 515
27.76 135 164 546
27.78 134 170 629
27.80 147 159 719
27.82 134 187 881
27.84 148 178 1105
27.86 120 158 1314
27.88 160 180 1513
27.90 146 165 1706
27.92 131 172 2019
27.94 140 179 2535
27.96 139 164 3006
27.98 141 187 3594
28.00 120 163 4324
28.02 161 172 5693
28.04 148 166 12410
28.06 141 137 31730
28.08 148 160 49021
28.10 150 143 57546
28.12 137 164 61121
28.14 150 149 63506
28.16 145 149 61057
28.18 150 156 50374
28.20 151 171 43797
28.22 157 149 39255
28.24 127 160 25200
28.26 173 173 9283
28.28 129 151 3598
28.30 137 175 2320
28.32 147 141 1835
28.34 148 157 1547
28.36 147 154 1304
28.38 162 152 1191
28.40 165 159 1074
28.42 142 162 955
28.44 155 152 906
28.46 138 154 849
28.48 133 163 830
28.50 144 143 762
28.52 162 150 759
28.54 143 169 777
28.56 152 157 690
28.58 154 168 677
28.60 180 154 621
28.62 156 140 594
28.64 164 190 530
28.66 161 175 570
28.68 149 167 530
28.70 168 173 507
28.72 149 177 506
28.74 171 164 479
28.76 166 185 529
28.78 143 184 546
28.80 176 169 635
28.82 164 184 738
28.84 185 186 816
28.86 158 193 875
28.88 164 210 989
28.90 182 205 1035
28.92 196 232 1201
28.94 161 262 1329
28.96 181 270 1491
28.98 194 239 1752
29.00 143 210 1777
29.02 172 264 1949
29.04 172 242 2097
29.06 155 258 2207
29.08 175 219 2273
29.10 169 239 2441
29.12 177 254 2598
29.14 155 235 2702
29.16 193 266 2632
29.18 187 259 2789
29.20 178 275 2669
29.22 179 251 2710
29.24 167 265 2579
29.26 193 217 2692
29.28 203 248 2560
29.30 190 226 2406
29.32 179 246 2284
29.34 160 240 2287
29.36 164 208 2124
29.38 178 187 1894
29.40 202 195 1835
29.42 179 196 1734
29.44 187 176 1567
29.46 178 165 1462
29.48 205 180 1259
29.50 192 174 1133
29.52 185 162 938
29.54 181 149 871
29.56 185 156 763
29.58 196 134 653
29.60 180 143 603
29.62 178 118 511
29.64 183 137 407
29.66 170 121 391
29.68 160 147 407
29.70 177 124 303
29.72 197 142 311
29.74 220 118 309
29.76 196 141 260
29.78 182 127 263
29.80 195 130 266
29.82 204 140 302
29.84 184 112 270
29.86 208 124 308
29.88 180 128 296
29.90 213 109 299
29.92 167 138 290
29.94 190 126 353
29.96 207 129 308
29.98 185 99 318
30.00 182 117 287
30.02 208 107 300
30.04 204 131 294
30.06 219 117 253
30.08 220 119 233
30.10 180 101 276
30.12 204 113 262
30.14 174 118 215
30.16 188 108 243
30.18 185 96 208
30.20 182 81 214
30.22 208 111 206
30.24 201 119 195
30.26 213 115 218
30.28 205 111 205
30.30 183 108 210
30.32 205 112 193
30.34 206 126 203
30.36 186 113 216
30.38 204 89 228
30.40 212 109 212
30.42 200 110 236
30.44 175 141 201
30.46 218 116 201
30.48 216 121 191
30.50 200 111 203
30.52 208 107 194
30.54 219 109 180
30.56 201 110 184
30.58 206 97 204
30.60 232 116 181
30.62 214 98 188
30.64 209 95 184
30.66 228 99 194
30.68 235 103 172
30.70 194 110 167
30.72 214 89 192
30.74 200 124 194
30.76 213 123 150
30.78 222 102 171
30.80 223 113 151
30.82 240 89 167
30.84 202 89 154
30.86 209 101 145
30.88 192 106 164
30.90 224 98 147
30.92 198 114 157
30.94 181 98 173
30.96 218 106 142
30.98 219 109 155
31.00 202 93 149
31.02 231 86 138
31.04 224 90 159
31.06 232 108 159
31.08 212 96 160
31.10 212 99 148
31.12 221 98 155
31.14 223 90 145
31.16 226 93 157
31.18 196 78 140
31.20 215 78 138
31.22 248 113 134
31.24 218 95 129
31.26 235 94 133
31.28 238 75 133
31.30 238 94 156
31.32 223 84 128
31.34 212 92 155
31.36 240 94 128
31.38 209 93 134
31.40 225 82 140
31.42 208 82 126
31.44 230 96 110
31.46 238 87 127
31.48 207 85 128
31.50 221 76 127
31.52 226 89 122
31.54 260 81 128
31.56 219 95 120
31.58 213 82 115
31.60 235 90 126
31.62 232 82 115
31.64 230 74 137
31.66 225 87 95
31.68 221 87 125
31.70 230 77 102
31.72 224 76 118
31.74 229 84 101
31.76 240 98 129
31.78 248 100 119
31.80 229 80 119
31.82 226 87 92
31.84 234 98 114
31.86 216 101 105
31.88 234 75 114
31.90 228 91 135
31.92 240 84 113
31.94 231 89 121
31.96 234 77 93
31.98 231 83 129
32.00 212 73 116
32.02 227 81 106
32.04 245 88 109
32.06 247 71 109
32.08 219 74 85
32.10 223 74 104
32.12 207 74 124
32.14 221 83 111
32.16 245 86 114
32.18 237 82 114
32.20 204 90 102
32.22 218 85 110
32.24 215 75 104
32.26 252 64 112
32.28 238 91 129
32.30 255 58 112
32.32 207 65 113
32.34 229 67 84
32.36 207 80 101
32.38 226 79 86
32.40 239 61 84
32.42 235 77 96
32.44 242 59 97
32.46 249 78 89
32.48 210 66 94
32.50 240 65 110
32.52 234 74 96
32.54 264 59 98
32.56 261 62 87
32.58 230 66 102
32.60 229 72 95
32.62 258 60 89
32.64 343 68 91
32.66 350 66 87
32.68 371 74 90
32.70 390 80 74
32.72 370 69 74
32.74 355 47 90
32.76 308 64 104
32.78 321 66 70
32.80 304 63 86
32.82 255 73 90
32.84 250 63 106
32.86 237 74 106
32.88 228 90 87
32.90 235 88 82
32.92 238 106 81
32.94 246 94 89
32.96 261 94 86
32.98 214 105 92
33.00 251 75 94
33.02 261 77 87
33.04 228 70 77
33.06 257 65 75
33.08 237 71 85
33.10 242 61 80
33.12 263 56 73
33.14 256 61 103
33.16 233 67 90
33.18 225 62 75
33.20 227 65 91
33.22 266 71 87
33.24 225 57 66
33.26 265 56 81
33.28 230 60 72
33.30 239 61 81
33.32 258 53 74
33.34 216 52 71
33.36 216 56 91
33.38 239 68 59
33.40 243 56 66
33.42 230 45 71
33.44 230 52 85
33.46 225 57 68
33.48 237 66 77
33.50 227 59 76
33.52 215 53 70
33.54 262 57 60
33.56 234 55 74
33.58 237 57 85
33.60 223 40 79
33.62 232 40 65
33.64 227 53 72
33.66 220 47 77
33.68 258 56 52
33.70 244 37 78
33.72 211 54 68
33.74 266 57 62
33.76 248 46 72
33.78 238 51 66
33.80 270 37 69
33.82 263 47 76
33.84 242 48 56
33.86 251 48 71
33.88 271 48 61
33.90 240 39 60
33.92 263 45 72
33.94 218 51 64
33.96 231 47 61
33.98 228 39 61
34.00 258 47 57
34.02 243 52 75
34.04 238 32 71
34.06 244 55 63
34.08 239 46 64
34.10 234 40 57
34.12 254 48 56
34.14 234 45 57
34.16 229 43 56
34.18 232 43 54
34.20 273 42 52
34.22 252 37 61
34.24 233 39 51
34.26 229 57 56
34.28 233 50 50
34.30 229 44 37
34.32 248 51 47
34.34 250 46 56
34.36 225 36 59
34.38 248 46 42
34.40 235 37 47
34.42 230 54 47
34.44 222 38 52
34.46 227 38 54
34.48 251 36 46
34.50 228 43 50
34.52 251 41 42
34.54 245 49 46
34.56 225 36 48
34.58 230 38 44
34.60 227 46 53
34.62 237 35 56
34.64 240 42 48
34.66 222 36 43
34.68 238 31 48
34.70 260 36 43
34.72 229 35 56
34.74 234 36 49
34.76 244 39 53
34.78 254 36 54
34.80 253 34 41
34.82 259 35 44
34.84 239 27 44
34.86 228 41 35
34.88 242 41 39
34.90 269 40 47
34.92 230 43 38
34.94 238 35 46
34.96 224 28 61
34.98 224 41 36
35.00 236 32 44
35.02 220 38 47
35.04 239 47 45
35.06 232 44 51
35.08 230 46 54
35.10 247 22 56
35.12 214 29 47
35.14 271 47 35
35.16 212 36 56
35.18 235 36 45
35.20 263 35 42
35.22 225 35 42
35.24 227 37 55
35.26 263 33 40
35.28 250 33 39
35.30 244 26 39
35.32 229 35 40
35.34 229 30 30
35.36 252 27 38
35.38 204 38 50
35.40 251 29 39
35.42 215 20 40
35.44 249 41 44
35.46 219 32 40
35.48 219 37 41
35.50 230 26 35
35.52 245 33 35
35.54 249 30 41
35.56 203 24 29
35.58 251 32 31
35.60 240 29 52
35.62 218 26 45
35.64 223 36 51
35.66 225 27 37
35.68 239 26 48
35.70 241 26 46
35.72 222 28 34
35.74 220 31 40
35.76 237 36 37
35.78 231 38 43
35.80 250 26 39
35.82 209 35 49
35.84 239 26 30
35.86 244 22 32
35.88 210 34 27
35.90 231 39 23
35.92 210 39 26
35.94 265 26 32
35.96 251 39 28
35.98 241 30 32
36.00 235 24 33
36.02 213 25 29
36.04 219 29 29
36.06 224 21 29
36.08 227 24 36
36.10 234 31 37
36.12 216 26 35
36.14 211 39 29
36.16 247 30 29
36.18 227 24 46
36.20 216 22 43
36.22 216 20 29
36.24 232 22 32
36.26 222 33 20
36.28 203 26 28
36.30 219 38 28
36.32 218 20 33
36.34 223 22 22
36.36 214 26 28
36.38 204 25 34
36.40 231 21 26
36.42 216 23 35
36.44 191 26 32
36.46 226 24 20
36.48 266 24 26
36.50 208 22 29
36.52 205 20 32
36.54 197 26 29
36.56 215 24 46
36.58 208 40 29
36.60 216 28 29
36.62 223 31 21
36.64 200 23 27
36.66 210 32 25
36.68 235 26 33
36.70 239 25 23
36.72 217 20 34
36.74 217 23 20
36.76 212 23 21
36.78 198 23 25
36.80 190 26 27
36.82 241 27 20
36.84 247 30 28
36.86 210 17 25
36.88 216 13 32
36.90 214 23 23
36.92 218 31 19
36.94 204 36 18
36.96 215 21 22
36.98 189 26 21
37.00 187 21 22
37.02 182 19 21
37.04 234 27 21
37.06 222 24 32
37.08 240 21 18
37.10 217 25 23
37.12 200 30 18
37.14 211 18 28
37.16 187 28 24
37.18 203 18 18
37.20 203 24 17
37.22 207 20 22
37.24 212 19 29
37.26 220 22 29
37.28 234 26 24
37.30 201 21 17
37.32 212 26 24
37.34 198 22 25
37.36 213 24 17
37.38 220 26 27
37.40 191 21 22
37.42 212 29 20
37.44 181 37 22
37.46 198 40 20
37.48 222 33 24
37.50 198 49 24
37.52 184 48 24
37.54 196 64 28
37.56 174 40 18
37.58 205 35 24
37.60 192 22 21
37.62 199 33 16
37.64 176 21 18
37.66 184 25 25
37.68 171 21 16
37.70 189 14 18
37.72 200 18 16
37.74 210 30 17
37.76 197 12 15
37.78 186 14 15
37.80 215 21 15
37.82 200 17 18
37.84 221 17 21
37.86 200 15 25
37.88 177 14 22
37.90 182 19 20
37.92 185 12 16
37.94 189 10 23
37.96 181 14 20
37.98 193 13 16
38.00 207 28 21
38.02 199 18 20
38.04 216 34 14
38.06 196 22 17
38.08 180 30 17
38.10 201 30 17
38.12 236 17 9
38.14 183 29 13
38.16 192 17 18
38.18 181 23 22
38.20 154 11 20
38.22 191 21 16
38.24 184 12 19
38.26 174 23 17
38.28 168 22 22
38.30 195 15 18
38.32 197 10 14
38.34 184 8 23
38.36 169 16 16
38.38 172 12 10
38.40 166 25 15
38.42 174 17 13
38.44 192 12 12
38.46 171 21 18
38.48 195 17 17
38.50 178 13 22
38.52 216 16 12
38.54 187 18 18
38.56 179 17 13
38.58 169 25 14
38.60 170 27 16
38.62 205 33 11
38.64 197 41 17
38.66 178 63 14
38.68 178 62 9
38.70 175 62 19
38.72 200 75 24
38.74 177 49 23
38.76 172 26 15
38.78 155 27 23
38.80 160 10 30
38.82 179 10 25
38.84 198 12 31
38.86 178 26 30
38.88 202 18 19
38.90 176 22 21
38.92 178 18 22
38.94 173 18 20
38.96 174 21 19
38.98 170 24 21
39.00 183 17 20
39.02 200 19 15
39.04 173 19 16
39.06 175 14 13
39.08 185 17 14
39.10 172 20 12
39.12 165 15 15
39.14 170 11 15
39.16 167 16 17
39.18 166 18 8
39.20 190 19 13
39.22 174 17 20
39.24 157 16 9
39.26 169 18 8
39.28 176 24 14
39.30 156 18 14
39.32 177 14 12
39.34 178 29 13
39.36 164 10 15
39.38 167 13 19
39.40 163 15 10
39.42 179 16 12
39.44 178 18 10
39.46 174 18 15
39.48 178 15 17
39.50 177 14 11
39.52 157 14 14
39.54 175 14 7
39.56 172 13 17
39.58 161 12 13
39.60 169 8 19
39.62 162 15 12
39.64 147 5 15
39.66 167 9 12
39.68 157 16 13
39.70 161 15 12
39.72 146 16 11
39.74 166 20 16
39.76 157 8 13
39.78 148 19 14
39.80 159 20 13
39.82 166 18 14
39.84 153 15 12
39.86 145 20 11
39.88 184 15 10
39.90 140 15 15
39.92 160 24 12
39.94 165 20 10
39.96 160 8 12
39.98 145 15 12
40.00 150 9 9
40.02 148 22 11
40.04 129 19 9
40.06 163 7 14
40.08 155 17 8
40.10 143 18 14
40.12 133 11 10
40.14 157 19 12
40.16 155 11 10
40.18 152 9 15
40.20 148 4 14
40.22 147 11 11
40.24 134 14 13
40.26 167 12 13
40.28 137 13 12
40.30 129 11 14
40.32 148 11 12
40.34 157 13 15
40.36 142 9 13
40.38 164 19 16
40.40 153 15 9
40.42 163 18 10
40.44 138 16 13
40.46 124 18 17
40.48 148 13 13
40.50 133 12 14
40.52 157 5 13
40.54 130 17 8
40.56 151 13 10
40.58 134 20 9
40.60 135 18 12
40.62 142 11 8
40.64 158 16 18
40.66 145 16 10
40.68 139 18 10
40.70 145 12 11
40.72 158 10 12
40.74 146 9 16
40.76 141 16 9
40.78 144 18 15
40.80 161 13 9
40.82 146 16 15
40.84 166 19 10
40.86 111 11 16
40.88 140 13 12
40.90 123 11 8
40.92 134 8 5
40.94 132 14 12
40.96 146 12 13
40.98 146 10 9
41.00 156 8 7
41.02 130 18 9
41.04 145 14 8
41.06 135 13 15
41.08 135 11 10
41.10 163 16 10
41.12 120 7 10
41.14 132 15 16
41.16 180 9 9
41.18 132 10 13
41.20 136 16 11
41.22 151 18 16
41.24 126 18 11
41.26 126 10 16
41.28 133 10 12
41.30 124 10 15
41.32 134 15 6
41.34 131 17 9
41.36 127 11 13
41.38 129 18 17
41.40 136 17 13
41.42 134 12 15
41.44 134 8 8
41.46 127 16 8
41.48 130 17 8
41.50 112 12 9
41.52 146 15 8
41.54 139 19 12
41.56 157 1 4
41.58 115 6 8
41.60 146 14 11
41.62 133 13 9
41.64 141 13 9
41.66 126 10 8
41.68 129 14 13
41.70 135 14 9
41.72 134 17 7
41.74 130 14 7
41.76 97 18 7
41.78 116 13 9
41.80 126 30 9
41.82 123 34 7
41.84 120 30 6
41.86 137 38 10
41.88 118 32 13
41.90 115 20 15
41.92 133 19 13
41.94 127 21 15
41.96 135 26 7
41.98 126 26 8
42.00 122 35 7
42.02 114 41 11
42.04 122 35 11
42.06 117 36 9
42.08 115 46 7
42.10 123 61 9
42.12 106 131 11
42.14 128 245 8
42.16 110 476 10
42.18 124 644 6
42.20 114 727 7
42.22 109 772 13
42.24 123 584 12
42.26 115 362 10
42.28 108 168 10
42.30 121 78 9
42.32 115 57 8
42.34 114 49 12
42.36 106 32 9
42.38 103 30 8
42.40 103 36 15
42.42 113 32 10
42.44 117 28 3
42.46 110 27 13
42.48 113 25 12
42.50 105 32 6
42.52 112 29 6
42.54 109 28 7
42.56 116 24 10
42.58 93 20 15
42.60 123 15 9
42.62 95 21 8
42.64 103 34 13
42.66 106 15 11
42.68 107 24 10
42.70 104 20 7
42.72 97 16 10
42.74 129 18 8
42.76 107 14 12
42.78 135 32 7
42.80 99 21 6
42.82 104 17 14
42.84 103 23 6
42.86 109 20 15
42.88 95 20 8
42.90 106 13 6
42.92 97 14 11
42.94 119 16 6
42.96 107 16 7
42.98 104 19 12
43.00 82 17 4
43.02 110 17 12
43.04 110 16 10
43.06 118 20 5
43.08 104 16 8
43.10 114 19 12
43.12 95 25 7
43.14 87 30 6
43.16 97 26 13
43.18 94 17 3
43.20 93 15 7
43.22 112 22 16
43.24 100 17 5
43.26 102 12 6
43.28 92 22 6
43.30 95 16 7
43.32 80 17 8
43.34 107 12 16
43.36 112 21 8
43.38 108 26 10
43.40 80 10 6
43.42 104 12 9
43.44 103 13 7
43.46 95 19 12
43.48 90 14 7
43.50 92 13 12
43.52 81 12 12
43.54 105 12 9
43.56 91 15 5
43.58 93 15 9
43.60 92 19 8
43.62 100 21 14
43.64 89 15 5
43.66 92 21 11
43.68 90 16 9
43.70 98 17 8
43.72 86 12 6
43.74 88 18 8
43.76 110 12 6
43.78 82 16 9
43.80 107 12 5
43.82 88 12 6
43.84 89 12 10
43.86 101 16 9
43.88 99 19 10
43.90 90 14 4
43.92 88 19 13
43.94 89 22 11
43.96 99 17 5
43.98 78 14 7
44.00 97 20 14
44.02 80 15 8
44.04 78 20 5
44.06 99 5 10
44.08 98 21 10
44.10 82 20 7
44.12 105 17 9
44.14 70 19 8
44.16 77 18 7
44.18 99 18 6
44.20 93 20 10
44.22 98 9 10
44.24 71 14 8
44.26 86 17 7
44.28 89 13 8
44.30 89 20 7
44.32 85 12 7
44.34 81 17 11
44.36 82 16 8
44.38 71 19 8
44.40 89 27 8
44.42 91 22 10
44.44 88 17 10
44.46 64 17 6
44.48 82 17 7
44.50 98 12 9
44.52 82 21 8
44.54 96 13 9
44.56 94 15 7
44.58 82 10 5
44.60 95 16 9
44.62 69 17 7
44.64 89 12 5
44.66 80 18 6
44.68 78 14 11
44.70 79 14 8
44.72 86 19 3
44.74 100 19 8
44.76 78 20 5
44.78 71 19 2
44.80 87 25 7
44.82 68 18 6
44.84 93 14 9
44.86 88 29 5
44.88 84 30 10
44.90 90 19 1
44.92 59 32 11
44.94 74 35 7
44.96 78 24 16
44.98 70 19 10
45.00 77 13 4
45.02 76 25 3
45.04 73 19 2
45.06 83 13 6
45.08 74 23 11
45.10 86 23 9
45.12 78 18 6
45.14 65 13 6
45.16 76 29 6
45.18 69 21 7
45.20 64 25 8
45.22 61 36 12
45.24 66 53 6
45.26 81 61 3
45.28 81 83 12
45.30 64 111 6
45.32 66 126 8
45.34 83 143 11
45.36 57 121 8
45.38 67 151 9
45.40 65 135 5
45.42 61 143 5
45.44 60 129 4
45.46 64 137 6
45.48 79 124 5
45.50 72 139 7
45.52 79 139 5
45.54 71 119 9
45.56 73 145 10
45.58 73 140 8
45.60 64 129 9
45.62 66 134 10
45.64 69 122 3
45.66 78 150 6
45.68 62 155 10
45.70 69 113 9
45.72 75 116 5
45.74 71 146 9
45.76 74 133 11
45.78 78 126 6
45.80 78 127 11
45.82 78 136 6
45.84 85 121 14
45.86 52 141 7
45.88 61 122 6
45.90 70 149 5
45.92 62 147 6
45.94 78 143 6
45.96 70 119 15
45.98 60 124 12
46.00 63 145 6
46.02 72 139 5
46.04 84 147 5
46.06 92 140 6
46.08 70 144 6
46.10 70 124 10
46.12 81 143 6
46.14 56 147 15
46.16 57 151 5
46.18 62 117 12
46.20 72 145 10
46.22 61 153 5
46.24 79 154 8
46.26 60 145 6
46.28 64 143 9
46.30 54 135 7
46.32 56 147 9
46.34 52 154 9
46.36 47 145 6
46.38 80 143 11
46.40 67 170 5
46.42 72 181 8
46.44 45 167 8
46.46 52 177 5
46.48 61 168 11
46.50 82 175 6
46.52 64 189 12
46.54 54 210 10
46.56 55 193 7
46.58 64 218 7
46.60 59 228 7
46.62 56 231 11
46.64 60 273 5
46.66 64 318 8
46.68 66 358 7
46.70 55 487 6
46.72 60 616 3
46.74 61 802 6
46.76 63 958 8
46.78 49 1105 2
46.80 60 1194 4
46.82 54 1238 12
46.84 62 1321 5
46.86 52 1527 3
46.88 69 1963 5
46.90 67 2952 10
46.92 68 6872 6
46.94 48 18536 8
46.96 62 29757 6
46.98 69 34306 6
47.00 63 35914 6
47.02 69 35673 6
47.04 71 28012 5
47.06 62 18590 5
47.08 55 18206 7
47.10 55 20268 4
47.12 60 21028 13
47.14 67 20876 4
47.16 64 16661 6
47.18 55 8417 10
47.20 56 3282 7
47.22 75 1598 9
47.24 48 1127 7
47.26 70 801 8
47.28 58 669 9
47.30 75 579 6
47.32 71 429 7
47.34 66 427 1
47.36 69 374 7
47.38 74 342 4
47.40 89 310 7
47.42 69 311 5
47.44 96 281 4
47.46 105 231 3
47.48 87 257 7
47.50 91 223 5
47.52 84 222 7
47.54 73 247 10
47.56 52 170 10
47.58 62 211 17
47.60 53 197 12
47.62 52 181 5
47.64 46 172 6
47.66 53 166 7
47.68 72 183 7
47.70 45 151 8
47.72 57 163 4
47.74 60 165 6
47.76 51 145 7
47.78 60 154 10
47.80 47 176 6
47.82 62 125 4
47.84 55 143 8
47.86 65 132 12
47.88 32 122 7
47.90 60 122 7
47.92 55 125 8
47.94 62 125 6
47.96 48 118 7
47.98 52 111 8
48.00 67 119 5
48.02 62 111 3
48.04 66 121 4
48.06 68 98 12
48.08 78 93 11
48.10 53 101 12
48.12 45 115 8
48.14 58 109 1
48.16 64 116 5
48.18 48 119 8
48.20 65 102 6
48.22 59 102 6
48.24 54 113 4
48.26 66 94 8
48.28 57 110 6
48.30 66 106 5
48.32 68 102 5
48.34 84 97 7
48.36 90 85 8
48.38 72 109 13
48.40 79 96 5
48.42 73 96 5
48.44 77 78 8
48.46 95 86 11
48.48 100 94 9
48.50 96 82 2
48.52 99 87 6
48.54 107 97 8
48.56 106 90 7
48.58 125 114 5
48.60 141 85 7
48.62 125 90 10
48.64 137 94 5
48.66 143 84 9
48.68 138 101 6
48.70 135 80 7
48.72 164 78 7
48.74 154 80 8
48.76 194 82 2
48.78 146 87 6
48.80 178 92 3
48.82 169 86 6
48.84 174 61 4
48.86 190 66 8
48.88 169 76 8
48.90 166 78 8
48.92 166 91 10
48.94 164 88 8
48.96 166 81 4
48.98 140 62 6
49.00 157 78 12
49.02 159 73 5
49.04 150 71 5
49.06 148 83 7
49.08 141 73 8
49.10 137 67 9
49.12 137 69 7
49.14 119 71 6
49.16 127 83 6
49.18 118 71 2
49.20 95 67 5
49.22 78 73 2
49.24 89 79 5
49.26 80 79 11
49.28 74 55 6
49.30 75 56 5
49.32 63 62 4
49.34 76 68 4
49.36 66 74 10
49.38 69 74 4
49.40 50 65 8
49.42 62 66 8
49.44 38 57 3
49.46 49 62 3
49.48 45 70 1
49.50 45 72 7
49.52 54 64 3
49.54 56 63 9
49.56 38 63 3
49.58 48 57 5
49.60 44 58 4
49.62 49 70 5
49.64 45 61 2
49.66 58 60 5
49.68 44 52 6
49.70 41 56 11
49.72 55 56 5
49.74 47 52 4
49.76 47 58 2
49.78 49 72 11
49.80 48 52 6
49.82 62 69 6
49.84 35 65 8
49.86 43 55 3
49.88 34 53 1
49.90 46 46 2
49.92 39 56 3
49.94 36 53 11
49.96 38 56 4
49.98 31 53 4
50.00 37 50 3
50.02 48 65 7
50.04 36 55 6
50.06 45 59 4
50.08 44 53 7
50.10 36 66 10
50.12 40 52 9
50.14 45 52 7
50.16 47 53 3
50.18 40 60 3
50.20 34 49 6
50.22 44 45 8
50.24 42 66 12
50.26 40 66 3
50.28 38 52 9
50.30 50 60 12
50.32 39 50 5
50.34 29 55 6
50.36 34 46 9
50.38 47 58 5
50.40 38 57 4
50.42 43 61 5
50.44 36 44 2
50.46 35 59 6
50.48 42 52 5
50.50 40 59 6
50.52 38 48 4
50.54 30 53 2
50.56 31 56 6
50.58 43 36 5
50.60 44 53 10
50.62 37 50 4
50.64 37 57 6
50.66 32 56 7
50.68 36 47 5
50.70 46 64 6
50.72 30 68 8
50.74 34 42 5
50.76 35 53 11
50.78 32 42 4
50.80 35 46 11
50.82 38 39 8
50.84 35 53 5
50.86 33 60 7
50.88 29 44 9
50.90 40 49 5
50.92 25 50 6
50.94 32 48 7
50.96 27 61 6
50.98 27 45 5
51.00 34 50 8
51.02 40 50 4
51.04 32 59 5
51.06 46 45 6
51.08 34 46 7
51.10 32 53 2
51.12 35 54 9
51.14 31 54 4
51.16 40 38 7
51.18 32 42 2
51.20 28 54 4
51.22 23 44 2
51.24 35 41 7
51.26 36 41 3
51.28 31 46 3
51.30 40 42 6
51.32 31 38 2
51.34 32 46 4
51.36 33 39 6
51.38 41 46 6
51.40 34 37 5
51.42 34 42 4
51.44 26 43 4
51.46 36 46 7
51.48 34 39 6
51.50 32 42 6
51.52 30 40 3
51.54 30 40 7
51.56 37 52 4
51.58 31 48 4
51.60 32 44 5
51.62 36 58 5
51.64 26 45 9
51.66 26 39 2
51.68 26 39 4
51.70 32 43 6
51.72 34 38 4
51.74 27 33 8
51.76 38 34 3
51.78 41 46 3
51.80 27 54 7
51.82 34 46 7
51.84 36 39 2
51.86 27 49 6
51.88 26 29 6
51.90 38 45 3
51.92 31 37 7
51.94 45 38 4
51.96 28 39 4
51.98 37 34 3
52.00 37 44 1
52.02 40 43 8
52.04 38 43 1
52.06 38 40 5
52.08 27 43 8
52.10 28 34 2
52.12 39 41 1
52.14 35 41 4
52.16 32 39 4
52.18 30 46 8
52.20 34 35 4
52.22 35 34 3
52.24 33 27 3
52.26 35 33 2
52.28 32 41 4
52.30 37 41 5
52.32 21 20 10
52.34 17 35 5
52.36 41 33 3
52.38 38 27 6
52.40 38 40 6
52.42 37 28 5
52.44 26 34 4
52.46 37 47 3
52.48 27 31 6
52.50 34 37 7
52.52 41 37 4
52.54 31 32 4
52.56 35 34 3
52.58 31 38 7
52.60 32 34 4
52.62 28 31 5
52.64 33 33 11
52.66 32 28 9
52.68 31 40 4
52.70 27 33 5
52.72 30 38 6
52.74 32 28 1
52.76 38 32 5
52.78 37 39 3
52.80 35 24 6
52.82 33 32 7
52.84 33 35 1
52.86 33 31 5
52.88 31 33 5
52.90 31 29 7
52.92 27 25 6
52.94 20 32 7
52.96 26 32 15
52.98 34 33 6
53.00 33 26 2
53.02 24 31 5
53.04 27 25 7
53.06 28 25 4
53.08 36 27 2
53.10 29 32 6
53.12 37 33 8
53.14 31 36 4
53.16 36 23 3
53.18 33 23 7
53.20 26 31 4
53.22 35 30 3
53.24 25 26 2
53.26 23 31 2
53.28 21 42 5
53.30 32 30 4
53.32 31 44 3
53.34 35 31 4
53.36 26 26 5
53.38 22 30 4
53.40 34 29 3
53.42 31 32 4
53.44 35 30 2
53.46 36 24 7
53.48 30 36 3
53.50 35 25 4
53.52 22 25 7
53.54 22 21 6
53.56 25 25 6
53.58 28 32 4
53.60 23 19 4
53.62 34 33 2
53.64 33 35 3
53.66 25 29 5
53.68 27 35 3
53.70 23 30 5
53.72 29 20 3
53.74 38 21 7
53.76 18 26 4
53.78 32 25 6
53.80 43 27 4
53.82 33 34 6
53.84 22 25 7
53.86 34 22 7
53.88 41 25 6
53.90 35 26 10
53.92 19 25 5
53.94 28 29 2
53.96 24 32 4
53.98 32 36 7
54.00 35 32 2
54.02 23 30 3
54.04 32 31 5
54.06 22 24 8
54.08 34 35 3
54.10 27 25 8
54.12 27 23 5
54.14 28 24 6
54.16 29 28 6
54.18 44 26 4
54.20 46 34 6
54.22 34 24 9
54.24 45 29 3
54.26 57 20 4
54.28 46 20 2
54.30 69 23 3
54.32 64 21 7
54.34 41 20 7
54.36 54 21 5
54.38 44 29 4
54.40 42 23 7
54.42 37 25 6
54.44 36 27 5
54.46 37 26 7
54.48 38 33 4
54.50 28 23 8
54.52 35 34 9
54.54 36 23 5
54.56 29 18 4
54.58 34 25 2
54.60 28 23 10
54.62 33 29 2
54.64 34 23 5
54.66 31 13 1
54.68 31 31 8
54.70 26 24 3
54.72 26 18 5
54.74 42 23 4
54.76 38 27 6
54.78 30 21 5
54.80 34 27 7
54.82 32 23 4
54.84 24 17 4
54.86 26 21 5
54.88 35 18 2
54.90 32 25 2
54.92 36 30 1
54.94 32 27 2
54.96 23 19 2
54.98 31 16 5
55.00 35 23 0
55.02 29 23 1
55.04 37 21 9
55.06 36 22 2
55.08 23 22 5
55.10 41 23 6
55.12 34 32 4
55.14 48 24 2
55.16 34 18 4
55.18 35 24 5
55.20 37 30 10
55.22 26 18 6
55.24 28 29 5
55.26 39 30 2
55.28 38 34 1
55.30 30 19 6
55.32 28 21 2
55.34 26 23 3
55.36 29 35 7
55.38 25 16 2
55.40 46 27 6
55.42 33 21 7
55.44 31 25 3
55.46 33 20 6
55.48 31 22 6
55.50 28 32 2
55.52 26 19 3
55.54 34 18 5
55.56 30 23 3
55.58 30 16 1
55.60 26 23 2
55.62 26 32 1
55.64 39 21 6
55.66 30 21 1
55.68 34 23 3
55.70 32 29 2
55.72 36 22 1
55.74 24 18 4
55.76 24 23 6
55.78 36 17 2
55.80 31 15 6
55.82 32 21 1
55.84 31 23 6
55.86 32 19 6
55.88 26 22 0
55.90 28 18 3
55.92 39 19 4
55.94 41 20 4
55.96 37 16 3
55.98 31 22 5
56.00 43 13 4
56.02 66 17 4
56.04 73 16 5
56.06 81 31 5
56.08 88 19 2
56.10 95 10 7
56.12 73 22 3
56.14 50 13 6
56.16 44 23 0
56.18 37 19 3
56.20 28 19 10
56.22 31 20 2
56.24 21 21 3
56.26 37 19 8
56.28 29 22 4
56.30 37 13 4
56.32 28 23 2
56.34 20 22 8
56.36 32 18 6
56.38 38 21 1
56.40 39 13 8
56.42 29 26 2
56.44 32 25 2
56.46 29 15 5
56.48 36 21 5
56.50 33 18 7
56.52 34 17 2
56.54 28 19 1
56.56 32 31 1
56.58 26 22 8
56.60 29 19 2
56.62 33 14 0
56.64 20 13 5
56.66 21 27 3
56.68 31 23 5
56.70 30 16 6
56.72 31 13 3
56.74 22 21 7
56.76 27 24 2
56.78 31 29 4
56.80 26 24 4
56.82 39 18 9
56.84 31 21 8
56.86 37 19 2
56.88 16 22 5
56.90 25 15 4
56.92 24 20 8
56.94 23 19 4
56.96 35 19 7
56.98 29 21 3
57.00 31 20 1
57.02 37 13 5
57.04 28 18 5
57.06 26 19 3
57.08 27 14 5
57.10 29 15 2
57.12 31 22 2
57.14 25 15 4
57.16 31 14 6
57.18 27 22 3
57.20 34 20 7
57.22 35 19 10
57.24 23 15 4
57.26 32 17 3
57.28 39 16 6
57.30 29 26 2
57.32 32 21 5
57.34 31 28 5
57.36 33 14 7
57.38 25 20 7
57.40 37 13 5
57.42 32 17 5
57.44 31 19 4
57.46 30 16 3
57.48 44 13 7
57.50 31 18 4
57.52 35 24 6
57.54 29 19 6
57.56 39 11 5
57.58 25 14 8
57.60 39 14 6
57.62 38 21 6
57.64 29 16 5
57.66 21 22 6
57.68 42 21 4
57.70 31 23 4
57.72 33 26 4
57.74 30 19 8
57.76 33 18 2
57.78 29 24 4
57.80 22 20 4
57.82 29 14 6
57.84 35 22 7
57.86 26 15 7
57.88 32 13 6
57.90 32 13 4
57.92 29 24 5
57.94 35 24 3
57.96 33 18 7
57.98 23 12 3
58.00 22 15 7
58.02 30 25 4
58.04 31 16 6
58.06 41 18 4
58.08 32 22 6
58.10 35 13 4
58.12 33 23 6
58.14 29 19 4
58.16 33 27 1
58.18 31 24 3
58.20 35 18 5
58.22 31 14 4
58.24 36 18 5
58.26 30 18 2
58.28 45 16 5
58.30 26 17 1
58.32 32 27 3
58.34 28 18 4
58.36 31 16 8
58.38 31 20 3
58.40 32 18 12
58.42 38 22 4
58.44 26 13 11
58.46 26 16 9
58.48 35 23 16
58.50 29 15 21
58.52 32 19 19
58.54 27 14 16
58.56 30 22 9
58.58 38 6 7
58.60 32 20 9
58.62 34 18 7
58.64 29 13 11
58.66 25 16 16
58.68 45 13 9
58.70 24 23 9
58.72 28 7 6
58.74 35 18 3
58.76 32 17 4
58.78 33 16 8
58.80 38 16 4
58.82 33 10 4
58.84 26 9 6
58.86 32 14 6
58.88 32 18 0
58.90 39 13 5
58.92 40 14 4
58.94 35 9 2
58.96 37 8 2
58.98 28 16 4
59.00 31 16 4
59.02 28 13 8
59.04 30 16 3
59.06 30 15 5
59.08 34 21 4
59.10 25 8 4
59.12 38 10 4
59.14 29 7 4
59.16 36 13 1
59.18 33 13 3
59.20 39 8 7
59.22 35 9 3
59.24 38 13 2
59.26 35 9 0
59.28 37 13 3
59.30 34 13 6
59.32 30 15 2
59.34 35 5 3
59.36 33 19 5
59.38 32 18 3
59.40 21 14 1
59.42 26 11 6
59.44 31 9 7
59.46 36 22 5
59.48 28 7 5
59.50 38 14 3
59.52 36 11 9
59.54 38 11 5
59.56 28 9 3
59.58 38 7 2
59.60 41 12 6
59.62 37 13 6
59.64 34 13 5
59.66 26 8 4
59.68 36 13 1
59.70 29 11 2
59.72 39 12 10
59.74 27 16 4
59.76 36 21 6
59.78 35 13 2
59.80 36 7 1
59.82 27 8 1
59.84 34 15 6
59.86 32 16 6
59.88 35 19 6
59.90 33 13 4
59.92 33 6 2
59.94 25 8 4
59.96 30 14 3
59.98 34 14 5
60.00 30 8 4
60.02 38 9 4
60.04 23 14 4
60.06 30 12 1
60.08 34 12 2
60.10 36 9 4
60.12 38 13 7
60.14 38 7 4
60.16 27 13 5
60.18 30 8 5
60.20 40 13 3
60.22 36 19 5
60.24 32 21 8
60.26 37 13 3
60.28 30 14 4
60.30 36 13 3
60.32 36 6 5
60.34 33 8 5
60.36 29 13 6
60.38 36 12 5
60.40 32 17 5
60.42 29 12 2
60.44 31 17 5
60.46 32 8 3
60.48 23 10 5
60.50 47 10 9
60.52 48 10 6
60.54 30 14 12
60.56 34 12 12
60.58 35 12 6
60.60 30 13 11
60.62 32 16 11
60.64 46 10 9
60.66 34 13 12
60.68 28 17 11
60.70 32 16 16
60.72 44 15 11
60.74 43 11 7
60.76 44 12 9
60.78 35 15 12
60.80 34 11 11
60.82 48 11 10
60.84 63 12 16
60.86 53 8 14
60.88 45 12 13
60.90 58 11 15
60.92 52 14 25
60.94 56 10 13
60.96 48 11 18
60.98 43 9 11
61.00 35 12 13
61.02 46 12 18
61.04 49 5 11
61.06 36 11 13
61.08 42 7 16
61.10 52 9 14
61.12 58 15 11
61.14 52 8 20
61.16 60 14 16
61.18 52 7 12
61.20 55 14 12
61.22 55 7 11
61.24 64 5 12
61.26 67 7 13
61.28 95 12 10
61.30 93 7 10
61.32 120 9 13
61.34 179 8 9
61.36 279 7 5
61.38 488 7 8
61.40 720 11 7
61.42 914 5 3
61.44 961 8 6
61.46 926 10 3
61.48 689 12 4
61.50 541 6 7
61.52 267 9 3
61.54 169 12 7
61.56 128 13 7
61.58 98 6 5
61.60 94 12 5
61.62 85 11 6
61.64 66 11 4
61.66 66 5 1
61.68 53 7 4
61.70 61 13 2
61.72 46 6 7
61.74 61 5 4
61.76 52 10 4
61.78 40 8 3
61.80 61 13 6
61.82 62 10 5
61.84 60 6 5
61.86 51 14 4
61.88 53 4 2
61.90 36 8 4
61.92 58 10 3
61.94 39 6 6
61.96 43 10 6
61.98 55 10 5
62.00 34 11 2
62.02 44 8 3
62.04 44 5 4
62.06 42 10 4
62.08 39 5 1
62.10 39 12 3
62.12 51 5 2
62.14 41 12 4
62.16 48 10 3
62.18 58 9 2
62.20 38 11 3
62.22 38 10 2
62.24 44 10 3
62.26 48 8 3
62.28 50 8 5
62.30 41 11 1
62.32 44 4 2
62.34 44 9 5
62.36 42 5 2
62.38 27 10 4
62.40 34 5 1
62.42 34 5 4
62.44 31 5 5
62.46 34 4 4
62.48 41 8 3
62.50 41 13 4
62.52 39 6 3
62.54 49 13 1
62.56 36 10 5
62.58 31 9 3
62.60 44 10 3
62.62 44 7 6
62.64 41 7 2
62.66 46 5 2
62.68 49 5 2
62.70 31 14 4
62.72 32 6 4
62.74 34 7 5
62.76 37 10 7
62.78 34 10 4
62.80 35 6 7
62.82 33 14 4
62.84 35 6 1
62.86 41 6 0
62.88 45 12 1
62.90 45 8 5
62.92 47 9 4
62.94 49 8 4
62.96 38 9 2
62.98 42 6 3
63.00 35 3 5
63.02 64 7 2
63.04 55 6 2
63.06 44 6 1
63.08 51 6 3
63.10 42 9 3
63.12 40 11 2
63.14 40 5 5
63.16 36 5 3
63.18 35 7 3
63.20 33 5 5
63.22 48 4 3
63.24 37 7 4
63.26 34 5 2
63.28 40 7 0
63.30 27 8 4
63.32 37 8 4
63.34 41 12 3
63.36 32 7 3
63.38 40 3 6
63.40 41 5 2
63.42 32 9 8
63.44 43 9 1
63.46 41 1 3
63.48 44 7 6
63.50 39 10 3
63.52 44 7 2
63.54 42 6 3
63.56 47 5 5
63.58 45 11 3
63.60 38 5 5
63.62 39 3 3
63.64 35 7 5
63.66 37 4 1
63.68 53 5 8
63.70 41 5 3
63.72 41 7 6
63.74 32 6 2
63.76 49 6 2
63.78 44 7 4
63.80 37 7 3
63.82 40 7 3
63.84 45 5 0
63.86 42 7 2
63.88 29 11 5
63.90 45 8 4
63.92 50 4 4
63.94 35 7 2
63.96 48 7 2
63.98 35 5 2
64.00 29 5 1
64.02 40 5 2
64.04 39 9 2
64.06 45 8 0
64.08 34 4 3
64.10 34 7 3
64.12 37 11 3
64.14 30 3 6
64.16 38 6 2
64.18 34 9 2
64.20 49 3 5
64.22 33 5 4
64.24 48 6 2
64.26 39 6 4
64.28 44 4 1
64.30 35 8 7
64.32 38 5 4
64.34 25 6 2
64.36 36 7 3
64.38 30 6 6
64.40 33 5 2
64.42 31 2 5
64.44 24 7 4
64.46 45 8 4
64.48 35 5 1
64.50 50 3 9
64.52 42 9 0
64.54 42 4 2
64.56 29 4 2
64.58 39 3 1
64.60 42 7 6
64.62 48 5 3
64.64 48 5 3
64.66 39 6 3
64.68 24 2 6
64.70 45 3 6
64.72 38 5 6
64.74 44 3 3
64.76 38 3 4
64.78 32 4 3
64.80 29 10 4
64.82 39 7 7
64.84 26 5 5
64.86 39 7 3
64.88 44 8 4
64.90 41 9 1
64.92 48 0 4
64.94 40 11 6
64.96 51 4 2
64.98 43 3 4
65.00 38 2 2
65.02 33 6 2
65.04 44 5 2
65.06 42 2 5
65.08 40 6 0
65.10 40 6 3
65.12 39 13 1
65.14 28 6 3
65.16 32 0 1
65.18 34 7 2
65.20 37 5 1
65.22 37 6 0
65.24 37 4 1
65.26 35 6 5
65.28 47 7 8
65.30 36 6 4
65.32 36 11 3
65.34 50 5 1
65.36 46 6 3
65.38 44 7 4
65.40 42 3 1
65.42 38 6 3
65.44 41 9 1
65.46 44 6 0
65.48 47 5 5
65.50 45 4 5
65.52 50 5 3
65.54 40 8 5
65.56 59 5 0
65.58 45 7 4
65.60 56 8 3
65.62 83 6 7
65.64 70 2 1
65.66 66 8 4
65.68 54 5 6
65.70 42 3 6
65.72 44 8 3
65.74 41 6 2
65.76 35 8 4
65.78 37 9 2
65.80 34 4 2
65.82 36 2 3
65.84 41 3 5
65.86 40 4 2
65.88 43 7 6
65.90 47 4 5
65.92 38 4 5
65.94 35 4 4
65.96 34 6 4
65.98 39 4 7
66.00 55 7 3
66.02 30 7 4
66.04 46 9 5
66.06 52 9 2
66.08 51 8 7
66.10 47 7 4
66.12 51 9 3
66.14 71 9 4
66.16 92 6 1
66.18 93 7 2
66.20 115 6 2
66.22 141 7 8
66.24 161 4 3
66.26 186 5 3
66.28 178 4 4
66.30 156 1 3
66.32 163 5 8
66.34 150 3 4
66.36 157 7 4
66.38 174 5 7
66.40 169 5 1
66.42 178 6 1
66.44 156 5 4
66.46 192 7 2
66.48 161 3 6
66.50 147 5 3
66.52 192 1 2
66.54 171 11 4
66.56 159 7 2
66.58 165 6 2
66.60 174 6 2
66.62 155 8 2
66.64 167 6 3
66.66 150 6 6
66.68 199 4 0
66.70 170 9 4
66.72 163 5 3
66.74 151 5 1
66.76 169 6 3
66.78 161 6 3
66.80 173 7 3
66.82 162 8 2
66.84 159 5 3
66.86 163 3 3
66.88 175 5 6
66.90 171 3 3
66.92 175 7 5
66.94 171 2 4
66.96 145 4 5
66.98 159 2 3
67.00 154 4 3
67.02 180 7 3
67.04 168 9 4
67.06 154 4 2
67.08 177 4 2
67.10 151 3 2
67.12 148 6 2
67.14 165 4 3
67.16 150 3 5
67.18 160 9 1
67.20 171 4 4
67.22 172 0 1
67.24 172 4 1
67.26 187 4 2
67.28 178 6 4
67.30 159 4 4
67.32 194 5 0
67.34 193 6 2
67.36 169 5 3
67.38 135 6 3
67.40 161 3 4
67.42 158 7 2
67.44 159 6 2
67.46 155 6 4
67.48 145 4 2
67.50 179 3 5
67.52 150 5 6
67.54 166 2 4
67.56 180 5 1
67.58 160 7 1
67.60 188 4 2
67.62 171 2 1
67.64 199 4 2
67.66 163 6 1
67.68 194 8 6
67.70 179 1 8
67.72 166 3 2
67.74 182 3 4
67.76 177 8 5
67.78 191 4 3
67.80 197 4 2
67.82 210 7 2
67.84 215 3 3
67.86 201 3 7
67.88 196 3 2
67.90 212 2 5
67.92 205 1 1
67.94 222 4 6
67.96 198 3 3
67.98 212 3 1
68.00 179 4 1
68.02 221 2 4
68.04 210 7 3
68.06 216 6 0
68.08 216 2 3
68.10 217 7 3
68.12 224 6 1
68.14 220 6 4
68.16 224 3 1
68.18 242 6 2
68.20 238 6 4
68.22 245 7 3
68.24 255 3 5
68.26 255 6 3
68.28 259 6 3
68.30 288 3 5
68.32 291 5 5
68.34 328 4 3
68.36 316 5 4
68.38 366 2 3
68.40 343 1 6
68.42 436 6 0
68.44 501 2 2
68.46 591 5 0
68.48 632 3 3
68.50 754 8 4
68.52 904 5 2
68.54 1029 9 3
68.56 1155 3 2
68.58 1133 3 6
68.60 1359 8 1
68.62 1263 2 2
68.64 1314 5 4
68.66 1464 3 4
68.68 1559 6 3
68.70 1775 1 2
68.72 2091 5 1
68.74 2667 3 1
68.76 3523 6 4
68.78 5003 2 3
68.80 8197 3 0
68.82 14588 3 5
68.84 28730 1 2
68.86 42019 6 3
68.88 47842 3 6
68.90 49155 4 2
68.92 47715 1 2
68.94 40231 5 2
68.96 25137 6 1
68.98 13781 5 3
69.00 9910 3 5
69.02 11845 4 4
69.04 19167 1 7
69.06 26694 7 2
69.08 30524 0 2
69.10 31078 2 4
69.12 28579 4 3
69.14 21898 4 1
69.16 12505 7 3
69.18 6054 5 6
69.20 3243 6 3
69.22 2196 6 1
69.24 1728 6 7
69.26 1384 5 6
69.28 1173 7 2
69.30 1003 5 3
69.32 892 6 3
69.34 818 2 2
69.36 723 2 4
69.38 608 2 3
69.40 572 3 5
69.42 542 5 1
69.44 477 3 2
69.46 471 3 0
69.48 431 1 2
69.50 389 5 5
69.52 377 2 3
69.54 379 8 4
69.56 363 7 3
69.58 354 4 6
69.60 311 7 3
69.62 322 4 2
69.64 287 2 3
69.66 285 2 2
69.68 292 3 4
69.70 312 7 2
69.72 267 6 2
69.74 276 5 5
69.76 244 8 3
69.78 248 4 6
69.80 225 1 2
69.82 223 4 5
69.84 243 5 2
69.86 231 8 7
69.88 227 4 0
69.90 232 3 2
69.92 254 7 1
69.94 212 1 3
69.96 210 5 4
69.98 201 3 5
70.00 201 6 5
70.02 210 2 1
70.04 191 4 4
70.06 195 6 6
70.08 205 5 6
70.10 218 5 4
70.12 204 1 2
70.14 177 7 2
70.16 164 4 3
70.18 169 3 2
70.20 178 2 3
70.22 183 4 3
70.24 185 6 3
70.26 164 4 1
70.28 159 3 2
70.30 186 3 4
70.32 175 4 1
70.34 169 6 2
70.36 165 2 4
70.38 152 1 5
70.40 148 5 3
70.42 183 4 3
70.44 170 4 4
70.46 148 1 3
70.48 163 5 4
70.50 154 4 3
70.52 135 3 3
70.54 149 1 2
70.56 155 2 6
70.58 127 2 4
70.60 133 6 6
70.62 139 4 4
70.64 137 3 1
70.66 151 5 1
70.68 140 5 3
70.70 129 3 2
70.72 139 6 2
70.74 141 4 4
70.76 131 2 8
70.78 133 5 2
70.80 129 2 3
70.82 135 2 2
70.84 132 5 2
70.86 120 1 3
70.88 137 9 3
70.90 152 4 3
70.92 151 4 4
70.94 118 6 4
70.96 130 1 3
70.98 120 4 2
71.00 127 2 0
71.02 139 5 1
71.04 139 4 1
71.06 134 5 5
71.08 131 6 5
71.10 143 1 1
71.12 106 5 1
71.14 108 1 0
71.16 129 8 2
71.18 131 2 5
71.20 116 2 4
71.22 122 5 2
71.24 107 3 4
71.26 114 4 1
71.28 123 4 3
71.30 123 3 2
71.32 100 6 1
71.34 125 3 5
71.36 126 4 2
71.38 141 1 3
71.40 122 2 1
71.42 110 1 4
71.44 127 2 3
71.46 110 6 3
71.48 134 3 3
71.50 104 3 4
71.52 122 1 5
71.54 108 10 3
71.56 117 4 5
71.58 106 6 2
71.60 132 8 1
71.62 105 4 6
71.64 126 3 0
71.66 98 2 5
71.68 120 7 1
71.70 107 6 1
71.72 110 3 5
71.74 99 4 3
71.76 92 7 5
71.78 106 5 5
71.80 115 4 1
71.82 99 4 5
71.84 112 2 2
71.86 124 1 2
71.88 119 4 2
71.90 114 2 2
71.92 123 5 3
71.94 117 2 3
71.96 114 4 4
71.98 105 4 2
72.00 104 6 3
72.02 93 2 5
72.04 113 1 2
72.06 117 7 1
72.08 122 5 1
72.10 94 4 1
72.12 115 1 4
72.14 90 1 3
72.16 102 2 0
72.18 118 4 4
72.20 109 5 2
72.22 106 3 5
72.24 86 2 2
72.26 111 5 3
72.28 105 4 2
72.30 101 3 3
72.32 96 0 6
72.34 103 2 4
72.36 98 5 4
72.38 101 2 2
72.40 101 5 2
72.42 89 1 3
72.44 106 1 1
72.46 108 5 5
72.48 81 2 1
72.50 91 2 5
72.52 112 3 1
72.54 100 4 8
72.56 103 5 0
72.58 101 3 2
72.60 109 6 3
72.62 88 4 4
72.64 108 2 4
72.66 100 6 3
72.68 95 2 3
72.70 87 2 1
72.72 103 5 2
72.74 99 2 2
72.76 89 3 5
72.78 100 2 0
72.80 92 2 2
72.82 95 4 0
72.84 82 2 4
72.86 121 4 2
72.88 100 1 2
72.90 90 7 4
72.92 99 7 4
72.94 94 5 1
72.96 105 4 3
72.98 86 3 4
73.00 103 3 2
73.02 69 1 3
73.04 85 2 4
73.06 101 4 2
73.08 108 5 5
73.10 107 5 3
73.12 80 1 0
73.14 102 3 3
73.16 96 4 4
73.18 99 3 2
73.20 91 3 1
73.22 85 3 2
73.24 108 0 2
73.26 82 3 4
73.28 97 0 2
73.30 95 2 4
73.32 79 0 3
73.34 85 5 4
73.36 89 2 1
73.38 82 5 1
73.40 84 3 3
73.42 111 6 1
73.44 94 1 2
73.46 74 4 5
73.48 73 1 6
73.50 80 9 2
73.52 91 6 3
73.54 77 1 2
73.56 84 2 2
73.58 84 2 2
73.60 90 3 2
73.62 75 5 5
73.64 94 1 3
73.66 91 3 4
73.68 81 8 4
73.70 107 1 8
73.72 86 2 4
73.74 91 4 7
73.76 83 6 4
73.78 87 2 2
73.80 85 1 1
73.82 82 1 1
73.84 83 2 4
73.86 77 2 0
73.88 86 3 2
73.90 74 5 2
73.92 85 6 3
73.94 85 2 2
73.96 92 3 3
73.98 85 2 5
74.00 87 3 4
74.02 76 9 2
74.04 70 4 5
74.06 68 6 3
74.08 91 8 2
74.10 86 3 5
74.12 77 7 5
74.14 68 0 4
74.16 98 3 3
74.18 85 3 3
74.20 84 4 2
74.22 90 5 0
74.24 74 1 2
74.26 85 3 4
74.28 81 5 2
74.30 72 4 2
74.32 84 8 2
74.34 80 2 3
74.36 74 4 2
74.38 83 4 2
74.40 74 2 2
74.42 77 4 1
74.44 90 4 1
74.46 73 6 4
74.48 92 1 1
74.50 71 2 3
74.52 82 3 2
74.54 84 4 4
74.56 84 5 1
74.58 92 3 3
74.60 81 7 1
74.62 82 3 1
74.64 72 2 4
74.66 87 7 1
74.68 70 4 2
74.70 83 3 4
74.72 78 5 3
74.74 75 1 3
74.76 75 2 4
74.78 74 4 3
74.80 78 4 2
74.82 56 3 4
74.84 77 6 4
74.86 63 3 0
74.88 80 4 1
74.90 80 5 4
74.92 67 11 2
74.94 83 1 2
74.96 71 3 3
74.98 86 4 6
75.00 66 4 3
75.02 76 6 0
75.04 76 4 5
75.06 75 4 5
75.08 63 4 3
75.10 83 5 4
75.12 71 4 5
75.14 70 5 6
75.16 93 1 0
75.18 65 3 5
75.20 76 4 0
75.22 80 3 4
75.24 88 2 1
75.26 77 0 2
75.28 76 5 3
75.30 73 0 2
75.32 66 4 3
75.34 72 1 4
75.36 86 1 2
75.38 75 4 3
75.40 71 2 5
75.42 65 6 2
75.44 71 2 1
75.46 64 3 2
75.48 74 5 3
75.50 75 6 2
75.52 68 1 3
75.54 76 3 3
75.56 71 1 1
75.58 72 3 5
75.60 70 4 4
75.62 77 2 4
75.64 65 3 1
75.66 61 6 3
75.68 73 4 2
75.70 65 2 2
75.72 60 1 4
75.74 70 9 6
75.76 71 1 2
75.78 93 2 3
75.80 87 5 3
75.82 66 2 3
75.84 56 4 3
75.86 75 3 3
75.88 77 2 6
75.90 76 3 4
75.92 65 3 3
75.94 68 4 4
75.96 68 3 3
75.98 84 5 5
76.00 54 1 5
76.02 69 6 3
76.04 74 5 6
76.06 82 4 2
76.08 78 2 4
76.10 69 1 1
76.12 75 7 4
76.14 75 4 2
76.16 78 3 3
76.18 83 2 3
76.20 57 4 2
76.22 77 4 5
76.24 62 8 3
76.26 72 0 1
76.28 70 5 4
76.30 77 5 1
76.32 58 3 6
76.34 53 4 0
76.36 68 2 2
76.38 63 3 7
76.40 66 5 4
76.42 75 4 3
76.44 73 4 2
76.46 58 1 1
76.48 69 3 2
76.50 72 5 6
76.52 70 4 1
76.54 62 3 2
76.56 50 3 4
76.58 61 3 3
76.60 57 2 4
76.62 58 4 1
76.64 69 4 3
76.66 53 6 1
76.68 58 2 1
76.70 72 4 2
76.72 67 1 2
76.74 69 7 2
76.76 53 5 3
76.78 59 4 2
76.80 63 3 4
76.82 58 5 4
76.84 57 5 0
76.86 87 4 4
76.88 57 3 2
76.90 66 4 5
76.92 54 0 3
76.94 64 4 1
76.96 69 3 3
76.98 96 2 1
77.00 59 2 5
77.02 67 4 6
77.04 57 4 1
77.06 61 4 4
77.08 58 1 1
77.10 57 2 6
77.12 62 5 3
77.14 51 1 2
77.16 60 2 2
77.18 53 4 4
77.20 66 4 3
77.22 56 3 6
77.24 68 0 3
77.26 56 2 2
77.28 62 5 1
77.30 55 4 2
77.32 46 3 1
77.34 59 4 1
77.36 72 2 5
77.38 80 3 4
77.40 64 4 2
77.42 63 5 4
77.44 70 4 5
77.46 71 2 2
77.48 60 3 0
77.50 59 2 2
77.52 69 1 2
77.54 56 1 4
77.56 51 3 3
77.58 67 2 0
77.60 71 3 3
77.62 61 4 4
77.64 63 4 2
77.66 60 2 3
77.68 57 8 1
77.70 39 3 3
77.72 59 5 0
77.74 54 4 5
77.76 49 4 5
77.78 59 6 4
77.80 62 3 2
77.82 54 5 3
77.84 61 2 0
77.86 54 1 4
77.88 55 7 5
77.90 54 7 4
77.92 74 1 9
77.94 69 2 2
77.96 56 4 2
77.98 57 1 5
78.00 56 0 2
78.02 45 1 0
78.04 58 2 4
78.06 63 3 4
78.08 63 4 3
78.10 46 2 3
78.12 60 1 5
78.14 58 3 1
78.16 61 4 3
78.18 57 4 1
78.20 62 3 3
78.22 68 4 2
78.24 49 0 5
78.26 55 2 0
78.28 52 2 2
78.30 51 5 2
78.32 65 0 3
78.34 44 2 2
78.36 59 4 1
78.38 62 4 1
78.40 40 0 2
78.42 54 3 2
78.44 50 3 5
78.46 64 1 2
78.48 64 2 2
78.50 56 1 2
78.52 45 7 0
78.54 42 1 1
78.56 64 4 3
78.58 57 4 2
78.60 57 1 4
78.62 62 4 3
78.64 50 3 4
78.66 38 5 1
78.68 53 5 1
78.70 48 1 3
78.72 61 1 4
78.74 51 0 2
78.76 50 1 2
78.78 45 0 0
78.80 55 2 3
78.82 51 1 1
78.84 49 3 3
78.86 55 3 2
78.88 49 2 3
78.90 41 3 5
78.92 58 2 2
78.94 49 3 2
78.96 44 2 7
78.98 45 1 2
79.00 50 2 0
79.02 47 2 8
79.04 56 3 2
79.06 53 1 4
79.08 43 2 4
79.10 57 3 1
79.12 58 7 2
79.14 51 1 2
79.16 57 3 3
79.18 49 2 3
79.20 52 2 4
79.22 52 5 6
79.24 58 4 1
79.26 43 1 5
79.28 45 1 2
79.30 49 3 3
79.32 51 5 2
79.34 39 1 6
79.36 55 4 1
79.38 54 1 2
79.40 41 2 2
79.42 56 3 4
79.44 47 1 0
79.46 47 2 5
79.48 36 4 3
79.50 53 2 7
79.52 50 3 5
79.54 58 3 1
79.56 42 3 1
79.58 57 4 4
79.60 50 4 5
79.62 49 1 4
79.64 57 5 5
79.66 51 4 1
79.68 39 2 3
79.70 62 1 0
79.72 62 2 1
79.74 48 3 4
79.76 43 5 2
79.78 41 1 4
79.80 48 0 3
79.82 62 1 5
79.84 49 7 1
79.86 48 5 1
79.88 61 2 1
79.90 52 5 2
79.92 49 5 2
79.94 45 3 4
79.96 43 4 5
79.98 39 4 3
80.00 39 4 3
