![2] TM7111A1.59A TM7111A2.26A
25.00 3 1
25.02 1 2
25.04 3 5
25.06 0 4
25.08 4 6
25.10 2 5
25.12 2 3
25.14 2 3
25.16 3 3
25.18 0 1
25.20 2 2
25.22 3 1
25.24 1 7
25.26 0 2
25.28 5 2
25.30 5 0
25.32 4 5
25.34 0 4
25.36 4 0
25.38 3 4
25.40 3 1
25.42 1 6
25.44 5 1
25.46 3 1
25.48 2 1
25.50 3 3
25.52 1 1
25.54 1 4
25.56 2 6
25.58 4 3
25.60 3 2
25.62 4 3
25.64 4 6
25.66 3 5
25.68 4 1
25.70 4 2
25.72 3 3
25.74 1 2
25.76 5 3
25.78 1 3
25.80 4 3
25.82 1 1
25.84 6 4
25.86 0 3
25.88 3 4
25.90 2 3
25.92 3 5
25.94 2 2
25.96 2 5
25.98 9 2
26.00 1 2
26.02 1 1
26.04 2 4
26.06 5 2
26.08 4 5
26.10 3 5
26.12 2 2
26.14 4 3
26.16 3 3
26.18 2 1
26.20 2 0
26.22 3 3
26.24 2 1
26.26 2 4
26.28 3 3
26.30 4 4
26.32 3 2
26.34 5 3
26.36 1 4
26.38 5 9
26.40 1 2
26.42 1 2
26.44 3 4
26.46 3 5
26.48 4 5
26.50 7 2
26.52 1 1
26.54 3 1
26.56 0 1
26.58 0 2
26.60 1 3
26.62 6 4
26.64 8 4
26.66 3 5
26.68 2 5
26.70 2 6
26.72 3 3
26.74 2 1
26.76 1 4
26.78 1 2
26.80 4 4
26.82 1 2
26.84 4 3
26.86 6 3
26.88 5 2
26.90 3 1
26.92 0 3
26.94 3 1
26.96 6 0
26.98 1 4
27.00 2 3
27.02 4 2
27.04 3 2
27.06 2 0
27.08 0 2
27.10 3 0
27.12 4 4
27.14 3 1
27.16 4 3
27.18 6 3
27.20 3 4
27.22 3 3
27.24 2 2
27.26 3 1
27.28 3 2
27.30 4 4
27.32 0 1
27.34 3 1
27.36 4 4
27.38 3 7
27.40 3 2
27.42 2 3
27.44 1 2
27.46 1 5
27.48 1 3
27.50 1 1
27.52 4 0
27.54 3 5
27.56 2 1
27.58 5 4
27.60 2 1
27.62 5 5
27.64 2 5
27.66 3 1
27.68 2 2
27.70 2 3
27.72 2 5
27.74 4 4
27.76 3 3
27.78 0 4
27.80 6 2
27.82 3 9
27.84 3 4
27.86 3 3
27.88 9 4
27.90 2 1
27.92 3 3
27.94 2 1
27.96 3 2
27.98 1 2
28.00 2 7
28.02 4 5
28.04 0 5
28.06 6 2
28.08 3 2
28.10 6 7
28.12 5 6
28.14 4 3
28.16 7 3
28.18 2 6
28.20 2 2
28.22 2 5
28.24 4 3
28.26 4 2
28.28 4 7
28.30 4 1
28.32 3 2
28.34 3 1
28.36 0 3
28.38 5 6
28.40 5 1
28.42 4 3
28.44 4 3
28.46 4 2
28.48 3 3
28.50 6 2
28.52 4 5
28.54 6 2
28.56 3 2
28.58 4 6
28.60 4 3
28.62 2 2
28.64 2 5
28.66 5 3
28.68 0 4
28.70 5 0
28.72 4 4
28.74 5 3
28.76 3 3
28.78 3 5
28.80 3 6
28.82 3 5
28.84 3 3
28.86 3 3
28.88 3 1
28.90 2 7
28.92 5 7
28.94 3 5
28.96 2 1
28.98 2 4
29.00 1 3
29.02 2 1
29.04 2 5
29.06 2 1
29.08 0 4
29.10 4 4
29.12 5 3
29.14 8 4
29.16 4 10
29.18 3 14
29.20 4 17
29.22 6 19
29.24 3 19
29.26 3 18
29.28 6 18
29.30 8 16
29.32 3 10
29.34 7 19
29.36 5 15
29.38 2 12
29.40 4 15
29.42 4 12
29.44 7 14
29.46 5 20
29.48 3 12
29.50 1 15
29.52 3 13
29.54 4 9
29.56 5 8
29.58 4 14
29.60 3 7
29.62 0 4
29.64 4 3
29.66 3 6
29.68 4 6
29.70 3 5
29.72 4 1
29.74 6 6
29.76 8 3
29.78 5 3
29.80 4 4
29.82 9 3
29.84 3 3
29.86 10 6
29.88 9 2
29.90 3 6
29.92 5 3
29.94 6 2
29.96 9 3
29.98 7 1
30.00 6 4
30.02 3 1
30.04 12 5
30.06 6 5
30.08 8 3
30.10 7 2
30.12 5 4
30.14 10 2
30.16 4 0
30.18 4 3
30.20 4 1
30.22 3 4
30.24 11 5
30.26 7 1
30.28 7 5
30.30 12 8
30.32 10 3
30.34 14 7
30.36 9 2
30.38 10 5
30.40 12 2
30.42 10 0
30.44 6 4
30.46 23 4
30.48 18 1
30.50 11 4
30.52 19 1
30.54 18 3
30.56 15 3
30.58 17 5
30.60 11 4
30.62 16 4
30.64 12 4
30.66 10 1
30.68 18 5
30.70 12 5
30.72 15 1
30.74 14 3
30.76 16 5
30.78 11 0
30.80 13 2
30.82 9 2
30.84 13 2
30.86 13 2
30.88 9 2
30.90 6 1
30.92 14 9
30.94 4 4
30.96 8 4
30.98 2 4
31.00 8 2
31.02 2 2
31.04 5 3
31.06 9 0
31.08 5 2
31.10 4 3
31.12 3 3
31.14 1 4
31.16 8 4
31.18 2 4
31.20 6 4
31.22 2 4
31.24 5 3
31.26 7 4
31.28 2 1
31.30 4 1
31.32 5 5
31.34 1 3
31.36 6 3
31.38 5 5
31.40 5 4
31.42 1 3
31.44 7 1
31.46 4 4
31.48 0 4
31.50 6 4
31.52 6 2
31.54 3 2
31.56 1 6
31.58 4 1
31.60 6 2
31.62 3 5
31.64 6 2
31.66 2 4
31.68 3 5
31.70 6 4
31.72 2 4
31.74 4 1
31.76 6 0
31.78 7 1
31.80 5 2
31.82 3 2
31.84 4 2
31.86 6 2
31.88 4 5
31.90 3 4
31.92 5 3
31.94 5 7
31.96 6 6
31.98 4 2
32.00 7 4
32.02 6 3
32.04 1 1
32.06 3 0
32.08 7 4
32.10 2 1
32.12 1 4
32.14 2 4
32.16 4 1
32.18 2 1
32.20 3 4
32.22 1 5
32.24 7 3
32.26 2 2
32.28 2 2
32.30 2 4
32.32 7 2
32.34 8 3
32.36 2 2
32.38 5 3
32.40 1 3
32.42 0 2
32.44 2 2
32.46 1 4
32.48 4 2
32.50 2 4
32.52 1 3
32.54 1 6
32.56 2 2
32.58 5 2
32.60 3 1
32.62 3 5
32.64 4 2
32.66 2 4
32.68 2 2
32.70 5 3
32.72 3 2
32.74 0 1
32.76 2 4
32.78 3 3
32.80 3 1
32.82 7 6
32.84 6 3
32.86 3 4
32.88 4 5
32.90 4 5
32.92 2 5
32.94 4 5
32.96 4 2
32.98 3 4
33.00 1 2
33.02 1 2
33.04 6 6
33.06 3 5
33.08 6 3
33.10 2 1
33.12 2 4
33.14 1 2
33.16 8 5
33.18 4 3
33.20 3 4
33.22 7 5
33.24 2 3
33.26 3 5
33.28 1 3
33.30 3 5
33.32 1 3
33.34 5 4
33.36 2 4
33.38 6 7
33.40 1 8
33.42 3 2
33.44 4 1
33.46 3 6
33.48 1 5
33.50 5 2
33.52 5 4
33.54 1 5
33.56 2 3
33.58 4 4
33.60 4 4
33.62 5 5
33.64 3 2
33.66 4 6
33.68 5 3
33.70 3 5
33.72 1 3
33.74 2 5
33.76 1 6
33.78 2 2
33.80 4 3
33.82 2 2
33.84 1 2
33.86 3 1
33.88 4 7
33.90 6 4
33.92 2 5
33.94 2 2
33.96 4 8
33.98 5 1
34.00 1 2
34.02 5 3
34.04 9 2
34.06 5 3
34.08 3 0
34.10 4 6
34.12 3 6
34.14 3 3
34.16 3 7
34.18 3 7
34.20 3 3
34.22 2 3
34.24 2 1
34.26 3 6
34.28 1 4
34.30 3 5
34.32 0 3
34.34 5 1
34.36 5 5
34.38 3 3
34.40 4 2
34.42 8 4
34.44 3 1
34.46 4 2
34.48 2 3
34.50 2 3
34.52 4 2
34.54 5 5
34.56 4 1
34.58 4 2
34.60 3 2
34.62 5 5
34.64 3 1
34.66 7 3
34.68 4 3
34.70 2 2
34.72 0 4
34.74 1 5
34.76 7 3
34.78 4 2
34.80 6 5
34.82 6 2
34.84 2 2
34.86 4 3
34.88 3 4
34.90 3 6
34.92 3 3
34.94 0 5
34.96 4 0
34.98 3 3
35.00 3 3
