*TYPE           =  Raw
*CLASS          =  Standard measurement
*SAMPLE         =  Tm7100as
*COMMENT        =  right0000
*FNAME          =  Tm7100as.3170
*DATE           =  02-Dec-01 00:07

*GROUP_COUNT    =  1
*GONIO          =  広角ゴニオメータ, 185
*ATTACHMENT     =  標準試料ホルダー
*ASC            =  1, 0, 1, 0
*FILTER         =  使用しない
*C_MONOCHRO     =  使用しない, 0
*SLIT_NAME      =  0, 発散スリット
*SLIT_NAME      =  1, 散乱スリット
*SLIT_NAME      =  2, 受光スリット
*COUNTER        =  シンチレーションカウンタ, 0
*POS_FORMAT     =  0
*SCAN_AXIS      =  ２θ／θ
*MEAS_MODE      =  CONTINUOUS
*TARGET         =  29
*XRAY_CHAR      =  K-ALPHA1
*WAVE_LENGTH1   =  1.54056
*WAVE_LENGTH2   =  1.5444
*THICKNESS      =  0, 0
*MU             =  0, 0
*SCAN_MODE      =  2theta/theta
*SPEED_DIM      =  sec./step
*XUNIT          =  deg.
*YUNIT          =  cps
*SCALE_MODE     =  0
*REP_COUNT      =  1
*SE_COUNT       =  0
*STD_MATERIAL   =  Unknown, Unknown, 0, 0, 0, 0, 0, 0
*LATT_CONS      =  0, Unknown, Unknown, 0, 0, 0, 0, 0, 0
*SEC_COUNT      =  1
*TSPEC_SIZE     =  4
*TYPE_SPEC      =  0, 0
*TYPE_SPEC      =  1, 0
*TYPE_SPEC      =  2, 0
*TYPE_SPEC      =  3, 0
*MEMO           =  

*BEGIN
*GROUP          =  0
*START          =  10.0000   
*STOP           =  80.0000   
*STEP           =  0.0200    
*OFFSET         =  0.2500    
*SPEED          =  0.3
*SLIT_SPEC      =  0, "1/2deg.", 0.87, 10
*SLIT_SPEC      =  1, "1/2deg.", 0.63, 20
*SLIT_SPEC      =  2, "0.6mm", 0.15, 20
*KV             =  35
*MA             =  20
*LOW            =  0
*HIGH           =  0
*CTEMPER        =  0, 0
*CTEMPER        =  1, 0
*CTEMPER        =  2, 0
*PAREX          =  0, 0
*PAREX          =  1, 0
*PAREX          =  2, 0
*PAREX          =  3, 0
*PAREX          =  4, 0
*PAREX          =  5, 0
*PAREX          =  6, 0
*PAREX          =  7, 0
*PAREX          =  8, 0
*PAREX          =  9, 0
*PAREX          =  10, 0
*PAREX          =  11, 0
*PAREX          =  12, 0
*PAREX          =  13, 10
*PAREX          =  14, 0.01
*PAREX          =  15, 0
*FULL_SCALE     =  1000
*EXTRA_SIZE     =  4
*EXTRA          =  0, 0
*EXTRA          =  1, 0
*EXTRA          =  2, 0
*EXTRA          =  3, 0
*INDEX          =  0, 0, 0
*COUNT          =  3501
11, 10, 14, 14
8, 16, 11, 15
12, 10, 12, 10
11, 11, 8, 11
9, 19, 12, 17
17, 7, 12, 12
6, 10, 10, 15
7, 9, 9, 16
13, 12, 14, 14
15, 13, 14, 9
10, 18, 9, 10
9, 11, 19, 19
7, 17, 6, 13
21, 16, 13, 8
10, 6, 4, 15
8, 12, 12, 9
12, 13, 18, 20
14, 12, 9, 11
12, 11, 13, 18
8, 10, 6, 8
10, 9, 8, 11
11, 16, 10, 8
15, 17, 11, 8
17, 14, 12, 11
12, 11, 7, 13
16, 9, 7, 7
9, 16, 17, 10
8, 10, 14, 12
11, 12, 6, 11
15, 14, 7, 10
6, 18, 10, 11
16, 13, 15, 12
10, 8, 17, 17
9, 18, 11, 12
9, 15, 9, 7
7, 18, 8, 12
17, 9, 17, 3
7, 14, 11, 12
12, 9, 18, 16
16, 12, 13, 6
15, 16, 11, 21
10, 10, 10, 13
14, 14, 10, 16
9, 11, 7, 12
12, 12, 10, 15
11, 12, 7, 17
12, 23, 17, 12
12, 17, 12, 11
10, 20, 11, 13
8, 10, 15, 14
8, 17, 11, 10
15, 14, 15, 14
15, 12, 9, 17
21, 16, 13, 25
22, 24, 26, 26
33, 30, 36, 23
18, 26, 44, 30
30, 41, 47, 39
38, 49, 48, 45
28, 42, 35, 44
37, 49, 36, 45
37, 45, 42, 47
52, 44, 46, 36
45, 49, 36, 47
41, 53, 47, 41
55, 41, 31, 29
38, 49, 58, 35
33, 37, 32, 25
22, 26, 21, 21
22, 15, 16, 10
12, 11, 14, 12
12, 10, 18, 18
16, 17, 13, 23
8, 11, 13, 17
11, 13, 13, 12
16, 16, 11, 12
15, 10, 13, 10
15, 14, 8, 12
13, 12, 15, 15
14, 16, 20, 11
19, 8, 20, 15
15, 18, 14, 14
17, 15, 14, 18
12, 17, 10, 18
9, 14, 8, 14
23, 11, 11, 9
19, 18, 19, 20
11, 11, 11, 15
13, 21, 19, 17
15, 12, 18, 17
11, 13, 14, 21
12, 19, 13, 15
19, 24, 19, 11
12, 13, 15, 15
13, 15, 15, 8
15, 18, 14, 13
9, 13, 24, 9
12, 12, 9, 23
12, 10, 17, 11
15, 25, 21, 15
20, 19, 16, 14
13, 22, 17, 13
15, 25, 17, 14
14, 13, 16, 16
20, 13, 13, 20
22, 8, 14, 10
15, 12, 16, 20
20, 13, 17, 25
13, 23, 18, 12
15, 13, 19, 14
25, 17, 11, 12
8, 19, 14, 18
17, 12, 16, 20
18, 19, 17, 16
11, 15, 17, 12
19, 12, 19, 20
14, 17, 13, 13
20, 20, 12, 18
25, 23, 18, 13
15, 22, 8, 23
15, 16, 19, 26
21, 16, 16, 19
22, 16, 19, 14
19, 10, 17, 21
16, 21, 15, 24
19, 18, 22, 23
19, 14, 20, 21
18, 20, 17, 14
25, 23, 13, 18
21, 21, 25, 25
22, 15, 19, 14
22, 17, 16, 13
25, 15, 22, 20
28, 31, 14, 15
26, 30, 16, 20
17, 20, 22, 29
22, 18, 17, 14
22, 21, 18, 25
27, 16, 19, 23
24, 24, 29, 32
23, 16, 32, 24
26, 21, 22, 35
14, 25, 34, 23
34, 17, 31, 33
30, 18, 23, 19
26, 23, 35, 29
31, 26, 29, 35
26, 27, 27, 28
32, 33, 32, 24
25, 23, 31, 36
32, 33, 33, 27
33, 30, 23, 27
31, 38, 31, 30
26, 33, 28, 22
36, 31, 35, 38
36, 38, 41, 44
35, 35, 35, 28
34, 41, 38, 38
40, 32, 33, 33
37, 27, 33, 34
34, 31, 29, 25
36, 48, 39, 30
41, 21, 35, 32
44, 39, 32, 46
40, 35, 39, 32
30, 37, 36, 29
31, 39, 36, 45
35, 39, 28, 44
37, 29, 41, 30
40, 32, 42, 39
40, 46, 57, 44
49, 32, 53, 50
49, 43, 38, 42
47, 40, 41, 55
42, 46, 55, 61
43, 50, 45, 47
54, 50, 51, 51
49, 45, 59, 36
55, 42, 64, 54
40, 43, 60, 49
50, 42, 48, 44
48, 56, 69, 56
57, 59, 44, 57
61, 47, 54, 59
51, 53, 71, 61
63, 64, 64, 61
78, 59, 58, 73
60, 77, 67, 44
74, 69, 60, 70
59, 80, 78, 63
65, 55, 75, 72
57, 56, 66, 66
84, 80, 67, 79
69, 80, 85, 81
70, 94, 73, 70
80, 77, 70, 77
87, 69, 71, 88
80, 76, 97, 76
73, 94, 79, 80
97, 74, 73, 73
97, 89, 83, 87
103, 102, 101, 88
83, 90, 90, 109
100, 94, 90, 112
102, 83, 82, 94
105, 95, 84, 95
85, 78, 114, 97
107, 116, 104, 117
109, 91, 111, 122
117, 116, 100, 92
104, 120, 125, 97
121, 95, 112, 99
106, 104, 119, 108
137, 113, 106, 106
114, 131, 100, 101
119, 111, 116, 124
127, 120, 130, 128
107, 116, 127, 136
137, 127, 134, 118
114, 134, 128, 115
147, 154, 141, 132
129, 128, 124, 139
135, 134, 147, 134
148, 120, 160, 146
131, 140, 139, 141
120, 161, 148, 141
148, 150, 137, 150
145, 150, 151, 157
127, 173, 129, 137
147, 148, 147, 162
165, 142, 155, 138
133, 144, 162, 143
152, 154, 180, 156
164, 161, 149, 168
149, 171, 166, 143
176, 164, 185, 158
164, 182, 196, 161
181, 194, 143, 172
172, 155, 175, 169
177, 155, 193, 187
178, 179, 167, 193
203, 190, 179, 160
164, 178, 202, 179
187, 178, 205, 192
185, 181, 185, 196
180, 178, 183, 170
160, 177, 197, 220
196, 182, 195, 204
184, 208, 180, 213
167, 190, 207, 185
182, 208, 204, 219
220, 180, 204, 174
188, 185, 182, 208
201, 213, 205, 183
205, 206, 186, 204
212, 200, 175, 218
216, 200, 208, 219
201, 206, 232, 214
209, 228, 235, 194
214, 200, 213, 222
223, 240, 202, 209
192, 224, 198, 181
218, 219, 202, 231
224, 232, 212, 212
221, 223, 226, 196
215, 248, 218, 235
238, 238, 223, 212
240, 209, 225, 208
230, 238, 207, 221
226, 260, 219, 213
235, 232, 230, 225
221, 230, 224, 229
240, 248, 229, 226
234, 216, 234, 228
240, 231, 234, 231
212, 227, 245, 247
219, 223, 207, 221
245, 237, 204, 218
215, 252, 238, 255
207, 229, 207, 226
239, 235, 242, 249
210, 240, 234, 264
261, 230, 229, 258
343, 350, 371, 390
370, 355, 308, 321
304, 255, 250, 237
228, 235, 238, 246
261, 214, 251, 261
228, 257, 237, 242
263, 256, 233, 225
227, 266, 225, 265
230, 239, 258, 216
216, 239, 243, 230
230, 225, 237, 227
215, 262, 234, 237
223, 232, 227, 220
258, 244, 211, 266
248, 238, 270, 263
242, 251, 271, 240
263, 218, 231, 228
258, 243, 238, 244
239, 234, 254, 234
229, 232, 273, 252
233, 229, 233, 229
248, 250, 225, 248
235, 230, 222, 227
251, 228, 251, 245
225, 230, 227, 237
240, 222, 238, 260
229, 234, 244, 254
253, 259, 239, 228
242, 269, 230, 238
224, 224, 236, 220
239, 232, 230, 247
214, 271, 212, 235
263, 225, 227, 263
250, 244, 229, 229
252, 204, 251, 215
249, 219, 219, 230
245, 249, 203, 251
240, 218, 223, 225
239, 241, 222, 220
237, 231, 250, 209
239, 244, 210, 231
210, 265, 251, 241
235, 213, 219, 224
227, 234, 216, 211
247, 227, 216, 216
232, 222, 203, 219
218, 223, 214, 204
231, 216, 191, 226
266, 208, 205, 197
215, 208, 216, 223
200, 210, 235, 239
217, 217, 212, 198
190, 241, 247, 210
216, 214, 218, 204
215, 189, 187, 182
234, 222, 240, 217
200, 211, 187, 203
203, 207, 212, 220
234, 201, 212, 198
213, 220, 191, 212
181, 198, 222, 198
184, 196, 174, 205
192, 199, 176, 184
171, 189, 200, 210
197, 186, 215, 200
221, 200, 177, 182
185, 189, 181, 193
207, 199, 216, 196
180, 201, 236, 183
192, 181, 154, 191
184, 174, 168, 195
197, 184, 169, 172
166, 174, 192, 171
195, 178, 216, 187
179, 169, 170, 205
197, 178, 178, 175
200, 177, 172, 155
160, 179, 198, 178
202, 176, 178, 173
174, 170, 183, 200
173, 175, 185, 172
165, 170, 167, 166
190, 174, 157, 169
176, 156, 177, 178
164, 167, 163, 179
178, 174, 178, 177
157, 175, 172, 161
169, 162, 147, 167
157, 161, 146, 166
157, 148, 159, 166
153, 145, 184, 140
160, 165, 160, 145
150, 148, 129, 163
155, 143, 133, 157
155, 152, 148, 147
134, 167, 137, 129
148, 157, 142, 164
153, 163, 138, 124
148, 133, 157, 130
151, 134, 135, 142
158, 145, 139, 145
158, 146, 141, 144
161, 146, 166, 111
140, 123, 134, 132
146, 146, 156, 130
145, 135, 135, 163
120, 132, 180, 132
136, 151, 126, 126
133, 124, 134, 131
127, 129, 136, 134
134, 127, 130, 112
146, 139, 157, 115
146, 133, 141, 126
129, 135, 134, 130
97, 116, 126, 123
120, 137, 118, 115
133, 127, 135, 126
122, 114, 122, 117
115, 123, 106, 128
110, 124, 114, 109
123, 115, 108, 121
115, 114, 106, 103
103, 113, 117, 110
113, 105, 112, 109
116, 93, 123, 95
103, 106, 107, 104
97, 129, 107, 135
99, 104, 103, 109
95, 106, 97, 119
107, 104, 82, 110
110, 118, 104, 114
95, 87, 97, 94
93, 112, 100, 102
92, 95, 80, 107
112, 108, 80, 104
103, 95, 90, 92
81, 105, 91, 93
92, 100, 89, 92
90, 98, 86, 88
110, 82, 107, 88
89, 101, 99, 90
88, 89, 99, 78
97, 80, 78, 99
98, 82, 105, 70
77, 99, 93, 98
71, 86, 89, 89
85, 81, 82, 71
89, 91, 88, 64
82, 98, 82, 96
94, 82, 95, 69
89, 80, 78, 79
86, 100, 78, 71
87, 68, 93, 88
84, 90, 59, 74
78, 70, 77, 76
73, 83, 74, 86
78, 65, 76, 69
64, 61, 66, 81
81, 64, 66, 83
57, 67, 65, 61
60, 64, 79, 72
79, 71, 73, 73
64, 66, 69, 78
62, 69, 75, 71
74, 78, 78, 78
85, 52, 61, 70
62, 78, 70, 60
63, 72, 84, 92
70, 70, 81, 56
57, 62, 72, 61
79, 60, 64, 54
56, 52, 47, 80
67, 72, 45, 52
61, 82, 64, 54
55, 64, 59, 56
60, 64, 66, 55
60, 61, 63, 49
60, 54, 62, 52
69, 67, 68, 48
62, 69, 63, 69
71, 62, 55, 55
60, 67, 64, 55
56, 75, 48, 70
58, 75, 71, 66
69, 74, 89, 69
96, 105, 87, 91
84, 73, 52, 62
53, 52, 46, 53
72, 45, 57, 60
51, 60, 47, 62
55, 65, 32, 60
55, 62, 48, 52
67, 62, 66, 68
78, 53, 45, 58
64, 48, 65, 59
54, 66, 57, 66
68, 84, 90, 72
79, 73, 77, 95
100, 96, 99, 107
106, 125, 141, 125
137, 143, 138, 135
164, 154, 194, 146
178, 169, 174, 190
169, 166, 166, 164
166, 140, 157, 159
150, 148, 141, 137
137, 119, 127, 118
95, 78, 89, 80
74, 75, 63, 76
66, 69, 50, 62
38, 49, 45, 45
54, 56, 38, 48
44, 49, 45, 58
44, 41, 55, 47
47, 49, 48, 62
35, 43, 34, 46
39, 36, 38, 31
37, 48, 36, 45
44, 36, 40, 45
47, 40, 34, 44
42, 40, 38, 50
39, 29, 34, 47
38, 43, 36, 35
42, 40, 38, 30
31, 43, 44, 37
37, 32, 36, 46
30, 34, 35, 32
35, 38, 35, 33
29, 40, 25, 32
27, 27, 34, 40
32, 46, 34, 32
35, 31, 40, 32
28, 23, 35, 36
31, 40, 31, 32
33, 41, 34, 34
26, 36, 34, 32
30, 30, 37, 31
32, 36, 26, 26
26, 32, 34, 27
38, 41, 27, 34
36, 27, 26, 38
31, 45, 28, 37
37, 40, 38, 38
27, 28, 39, 35
32, 30, 34, 35
33, 35, 32, 37
21, 17, 41, 38
38, 37, 26, 37
27, 34, 41, 31
35, 31, 32, 28
33, 32, 31, 27
30, 32, 38, 37
35, 33, 33, 33
31, 31, 27, 20
26, 34, 33, 24
27, 28, 36, 29
37, 31, 36, 33
26, 35, 25, 23
21, 32, 31, 35
26, 22, 34, 31
35, 36, 30, 35
22, 22, 25, 28
23, 34, 33, 25
27, 23, 29, 38
18, 32, 43, 33
22, 34, 41, 35
19, 28, 24, 32
35, 23, 32, 22
34, 27, 27, 28
29, 44, 46, 34
45, 57, 46, 69
64, 41, 54, 44
42, 37, 36, 37
38, 28, 35, 36
29, 34, 28, 33
34, 31, 31, 26
26, 42, 38, 30
34, 32, 24, 26
35, 32, 36, 32
23, 31, 35, 29
37, 36, 23, 41
34, 48, 34, 35
37, 26, 28, 39
38, 30, 28, 26
29, 25, 46, 33
31, 33, 31, 28
26, 34, 30, 30
26, 26, 39, 30
34, 32, 36, 24
24, 36, 31, 32
31, 32, 26, 28
39, 41, 37, 31
43, 66, 73, 81
88, 95, 73, 50
44, 37, 28, 31
21, 37, 29, 37
28, 20, 32, 38
39, 29, 32, 29
36, 33, 34, 28
32, 26, 29, 33
20, 21, 31, 30
31, 22, 27, 31
26, 39, 31, 37
16, 25, 24, 23
35, 29, 31, 37
28, 26, 27, 29
31, 25, 31, 27
34, 35, 23, 32
39, 29, 32, 31
33, 25, 37, 32
31, 30, 44, 31
35, 29, 39, 25
39, 38, 29, 21
42, 31, 33, 30
33, 29, 22, 29
35, 26, 32, 32
29, 35, 33, 23
22, 30, 31, 41
32, 35, 33, 29
33, 31, 35, 31
36, 30, 45, 26
32, 28, 31, 31
32, 38, 26, 26
35, 29, 32, 27
30, 38, 32, 34
29, 25, 45, 24
28, 35, 32, 33
38, 33, 26, 32
32, 39, 40, 35
37, 28, 31, 28
30, 30, 34, 25
38, 29, 36, 33
39, 35, 38, 35
37, 34, 30, 35
33, 32, 21, 26
31, 36, 28, 38
36, 38, 28, 38
41, 37, 34, 26
36, 29, 39, 27
36, 35, 36, 27
34, 32, 35, 33
33, 25, 30, 34
30, 38, 23, 30
34, 36, 38, 38
27, 30, 40, 36
32, 37, 30, 36
36, 33, 29, 36
32, 29, 31, 32
23, 47, 48, 30
34, 35, 30, 32
46, 34, 28, 32
44, 43, 44, 35
34, 48, 63, 53
45, 58, 52, 56
48, 43, 35, 46
49, 36, 42, 52
58, 52, 60, 52
55, 55, 64, 67
95, 93, 120, 179
279, 488, 720, 914
961, 926, 689, 541
267, 169, 128, 98
94, 85, 66, 66
53, 61, 46, 61
52, 40, 61, 62
60, 51, 53, 36
58, 39, 43, 55
34, 44, 44, 42
39, 39, 51, 41
48, 58, 38, 38
44, 48, 50, 41
44, 44, 42, 27
34, 34, 31, 34
41, 41, 39, 49
36, 31, 44, 44
41, 46, 49, 31
32, 34, 37, 34
35, 33, 35, 41
45, 45, 47, 49
38, 42, 35, 64
55, 44, 51, 42
40, 40, 36, 35
33, 48, 37, 34
40, 27, 37, 41
32, 40, 41, 32
43, 41, 44, 39
44, 42, 47, 45
38, 39, 35, 37
53, 41, 41, 32
49, 44, 37, 40
45, 42, 29, 45
50, 35, 48, 35
29, 40, 39, 45
34, 34, 37, 30
38, 34, 49, 33
48, 39, 44, 35
38, 25, 36, 30
33, 31, 24, 45
35, 50, 42, 42
29, 39, 42, 48
48, 39, 24, 45
38, 44, 38, 32
29, 39, 26, 39
44, 41, 48, 40
51, 43, 38, 33
44, 42, 40, 40
39, 28, 32, 34
37, 37, 37, 35
47, 36, 36, 50
46, 44, 42, 38
41, 44, 47, 45
50, 40, 59, 45
56, 83, 70, 66
54, 42, 44, 41
35, 37, 34, 36
41, 40, 43, 47
38, 35, 34, 39
55, 30, 46, 52
51, 47, 51, 71
92, 93, 115, 141
161, 186, 178, 156
163, 150, 157, 174
169, 178, 156, 192
161, 147, 192, 171
159, 165, 174, 155
167, 150, 199, 170
163, 151, 169, 161
173, 162, 159, 163
175, 171, 175, 171
145, 159, 154, 180
168, 154, 177, 151
148, 165, 150, 160
171, 172, 172, 187
178, 159, 194, 193
169, 135, 161, 158
159, 155, 145, 179
150, 166, 180, 160
188, 171, 199, 163
194, 179, 166, 182
177, 191, 197, 210
215, 201, 196, 212
205, 222, 198, 212
179, 221, 210, 216
216, 217, 224, 220
224, 242, 238, 245
255, 255, 259, 288
291, 328, 316, 366
343, 436, 501, 591
632, 754, 904, 1029
1155, 1133, 1359, 1263
1314, 1464, 1559, 1775
2091, 2667, 3523, 5003
8197, 14588, 28730, 42019
47842, 49155, 47715, 40231
25137, 13781, 9910, 11845
19167, 26694, 30524, 31078
28579, 21898, 12505, 6054
3243, 2196, 1728, 1384
1173, 1003, 892, 818
723, 608, 572, 542
477, 471, 431, 389
377, 379, 363, 354
311, 322, 287, 285
292, 312, 267, 276
244, 248, 225, 223
243, 231, 227, 232
254, 212, 210, 201
201, 210, 191, 195
205, 218, 204, 177
164, 169, 178, 183
185, 164, 159, 186
175, 169, 165, 152
148, 183, 170, 148
163, 154, 135, 149
155, 127, 133, 139
137, 151, 140, 129
139, 141, 131, 133
129, 135, 132, 120
137, 152, 151, 118
130, 120, 127, 139
139, 134, 131, 143
106, 108, 129, 131
116, 122, 107, 114
123, 123, 100, 125
126, 141, 122, 110
127, 110, 134, 104
122, 108, 117, 106
132, 105, 126, 98
120, 107, 110, 99
92, 106, 115, 99
112, 124, 119, 114
123, 117, 114, 105
104, 93, 113, 117
122, 94, 115, 90
102, 118, 109, 106
86, 111, 105, 101
96, 103, 98, 101
101, 89, 106, 108
81, 91, 112, 100
103, 101, 109, 88
108, 100, 95, 87
103, 99, 89, 100
92, 95, 82, 121
100, 90, 99, 94
105, 86, 103, 69
85, 101, 108, 107
80, 102, 96, 99
91, 85, 108, 82
97, 95, 79, 85
89, 82, 84, 111
94, 74, 73, 80
91, 77, 84, 84
90, 75, 94, 91
81, 107, 86, 91
83, 87, 85, 82
83, 77, 86, 74
85, 85, 92, 85
87, 76, 70, 68
91, 86, 77, 68
98, 85, 84, 90
74, 85, 81, 72
84, 80, 74, 83
74, 77, 90, 73
92, 71, 82, 84
84, 92, 81, 82
72, 87, 70, 83
78, 75, 75, 74
78, 56, 77, 63
80, 80, 67, 83
71, 86, 66, 76
76, 75, 63, 83
71, 70, 93, 65
76, 80, 88, 77
76, 73, 66, 72
86, 75, 71, 65
71, 64, 74, 75
68, 76, 71, 72
70, 77, 65, 61
73, 65, 60, 70
71, 93, 87, 66
56, 75, 77, 76
65, 68, 68, 84
54, 69, 74, 82
78, 69, 75, 75
78, 83, 57, 77
62, 72, 70, 77
58, 53, 68, 63
66, 75, 73, 58
69, 72, 70, 62
50, 61, 57, 58
69, 53, 58, 72
67, 69, 53, 59
63, 58, 57, 87
57, 66, 54, 64
69, 96, 59, 67
57, 61, 58, 57
62, 51, 60, 53
66, 56, 68, 56
62, 55, 46, 59
72, 80, 64, 63
70, 71, 60, 59
69, 56, 51, 67
71, 61, 63, 60
57, 39, 59, 54
49, 59, 62, 54
61, 54, 55, 54
74, 69, 56, 57
56, 45, 58, 63
63, 46, 60, 58
61, 57, 62, 68
49, 55, 52, 51
65, 44, 59, 62
40, 54, 50, 64
64, 56, 45, 42
64, 57, 57, 62
50, 38, 53, 48
61, 51, 50, 45
55, 51, 49, 55
49, 41, 58, 49
44, 45, 50, 47
56, 53, 43, 57
58, 51, 57, 49
52, 52, 58, 43
45, 49, 51, 39
55, 54, 41, 56
47, 47, 36, 53
50, 58, 42, 57
50, 49, 57, 51
39, 62, 62, 48
43, 41, 48, 62
49, 48, 61, 52
49, 45, 43, 39
39
*END
*EOF
