*TYPE           =  Raw
*CLASS          =  Standard measurement
*SAMPLE         =  Tm7111as
*COMMENT        =  right0000
*FNAME          =  Tm7111as.3172
*DATE           =  02-Dec-01 01:11

*GROUP_COUNT    =  1
*GONIO          =  広角ゴニオメータ, 185
*ATTACHMENT     =  標準試料ホルダー
*ASC            =  1, 0, 1, 0
*FILTER         =  使用しない
*C_MONOCHRO     =  使用しない, 0
*SLIT_NAME      =  0, 発散スリット
*SLIT_NAME      =  1, 散乱スリット
*SLIT_NAME      =  2, 受光スリット
*COUNTER        =  シンチレーションカウンタ, 0
*POS_FORMAT     =  0
*SCAN_AXIS      =  ２θ／θ
*MEAS_MODE      =  CONTINUOUS
*TARGET         =  29
*XRAY_CHAR      =  K-ALPHA1
*WAVE_LENGTH1   =  1.54056
*WAVE_LENGTH2   =  1.5444
*THICKNESS      =  0, 0
*MU             =  0, 0
*SCAN_MODE      =  2theta/theta
*SPEED_DIM      =  sec./step
*XUNIT          =  deg.
*YUNIT          =  cps
*SCALE_MODE     =  0
*REP_COUNT      =  1
*SE_COUNT       =  0
*STD_MATERIAL   =  Unknown, Unknown, 0, 0, 0, 0, 0, 0
*LATT_CONS      =  0, Unknown, Unknown, 0, 0, 0, 0, 0, 0
*SEC_COUNT      =  1
*TSPEC_SIZE     =  4
*TYPE_SPEC      =  0, 0
*TYPE_SPEC      =  1, 0
*TYPE_SPEC      =  2, 0
*TYPE_SPEC      =  3, 0
*MEMO           =  

*BEGIN
*GROUP          =  0
*START          =  10.0000   
*STOP           =  80.0000   
*STEP           =  0.0200    
*OFFSET         =  0.0300    
*SPEED          =  0.3
*SLIT_SPEC      =  0, "1/2deg.", 0.87, 10
*SLIT_SPEC      =  1, "1/2deg.", 0.63, 20
*SLIT_SPEC      =  2, "0.6mm", 0.15, 20
*KV             =  35
*MA             =  20
*LOW            =  0
*HIGH           =  0
*CTEMPER        =  0, 0
*CTEMPER        =  1, 0
*CTEMPER        =  2, 0
*PAREX          =  0, 0
*PAREX          =  1, 0
*PAREX          =  2, 0
*PAREX          =  3, 0
*PAREX          =  4, 0
*PAREX          =  5, 0
*PAREX          =  6, 0
*PAREX          =  7, 0
*PAREX          =  8, 0
*PAREX          =  9, 0
*PAREX          =  10, 0
*PAREX          =  11, 0
*PAREX          =  12, 0
*PAREX          =  13, 10
*PAREX          =  14, 0.01
*PAREX          =  15, 0
*FULL_SCALE     =  1000
*EXTRA_SIZE     =  4
*EXTRA          =  0, 0
*EXTRA          =  1, 0
*EXTRA          =  2, 0
*EXTRA          =  3, 0
*INDEX          =  0, 0, 0
*COUNT          =  3501
51, 58, 50, 60
62, 63, 56, 65
63, 66, 57, 59
75, 73, 89, 71
66, 72, 58, 79
64, 74, 78, 85
83, 76, 63, 84
78, 74, 100, 89
103, 87, 93, 94
72, 74, 108, 115
112, 105, 92, 106
100, 103, 100, 134
115, 119, 140, 137
126, 109, 127, 152
152, 143, 141, 135
144, 137, 144, 130
160, 167, 141, 141
148, 146, 185, 141
178, 153, 168, 183
177, 167, 156, 186
193, 189, 185, 211
177, 253, 223, 208
205, 219, 214, 229
235, 212, 233, 249
232, 255, 256, 240
225, 248, 243, 240
243, 281, 249, 263
280, 254, 267, 284
290, 250, 278, 296
297, 336, 297, 290
290, 320, 338, 305
306, 293, 337, 340
302, 351, 358, 317
350, 306, 365, 358
381, 348, 383, 383
364, 350, 379, 387
399, 380, 423, 386
369, 364, 359, 413
406, 405, 395, 454
420, 376, 402, 400
423, 415, 382, 438
450, 440, 446, 429
484, 442, 465, 458
478, 467, 429, 465
399, 445, 460, 467
467, 458, 512, 430
510, 478, 453, 520
496, 490, 505, 482
509, 480, 520, 482
540, 502, 544, 515
566, 537, 525, 534
531, 531, 556, 529
511, 537, 515, 534
530, 550, 547, 501
555, 567, 503, 544
539, 554, 632, 537
581, 528, 510, 564
549, 572, 572, 598
583, 550, 550, 601
562, 609, 588, 591
576, 545, 634, 613
608, 579, 569, 539
581, 595, 540, 556
631, 558, 590, 522
571, 595, 620, 569
510, 565, 540, 580
585, 551, 538, 572
575, 576, 558, 564
568, 496, 557, 542
575, 537, 540, 557
533, 567, 544, 588
562, 577, 576, 528
560, 551, 554, 516
563, 569, 515, 516
551, 551, 593, 497
515, 552, 579, 528
541, 501, 503, 500
513, 534, 497, 520
506, 532, 489, 540
497, 538, 493, 490
509, 537, 490, 459
465, 497, 461, 462
512, 476, 478, 443
490, 473, 485, 452
470, 457, 459, 484
500, 464, 477, 467
443, 463, 433, 449
440, 477, 483, 459
467, 454, 449, 430
414, 442, 458, 414
406, 448, 473, 458
427, 452, 440, 422
442, 392, 406, 392
408, 380, 389, 404
387, 408, 382, 385
405, 361, 407, 397
365, 388, 361, 343
401, 343, 349, 372
358, 344, 355, 355
360, 395, 340, 348
350, 363, 352, 322
339, 319, 340, 336
351, 326, 360, 337
327, 310, 309, 302
311, 282, 310, 292
318, 300, 331, 298
276, 284, 291, 260
284, 286, 274, 274
258, 254, 295, 294
260, 277, 282, 273
259, 286, 257, 250
266, 241, 250, 246
266, 251, 215, 237
265, 248, 234, 236
288, 216, 255, 269
239, 254, 236, 238
258, 254, 246, 226
234, 229, 234, 201
244, 212, 218, 196
203, 221, 183, 191
190, 182, 199, 189
209, 166, 202, 167
175, 159, 241, 231
258, 269, 222, 249
211, 197, 190, 166
179, 169, 169, 158
171, 161, 151, 153
140, 139, 153, 136
131, 154, 130, 137
132, 140, 142, 151
133, 139, 141, 137
149, 142, 143, 143
153, 132, 140, 138
116, 131, 117, 150
142, 137, 111, 111
120, 127, 118, 115
92, 118, 117, 105
102, 115, 123, 108
107, 95, 127, 108
96, 122, 106, 87
75, 100, 110, 94
100, 92, 105, 94
96, 81, 86, 79
78, 83, 89, 93
88, 86, 92, 92
103, 91, 77, 93
86, 64, 76, 90
79, 65, 77, 79
68, 76, 74, 72
72, 69, 64, 78
81, 69, 70, 68
83, 69, 46, 67
55, 83, 86, 65
74, 58, 65, 49
61, 67, 47, 59
69, 54, 60, 61
67, 61, 80, 87
103, 114, 128, 99
66, 69, 51, 56
49, 40, 46, 67
46, 65, 52, 46
52, 62, 71, 80
52, 47, 38, 37
45, 45, 35, 52
48, 37, 36, 70
66, 88, 120, 119
135, 145, 87, 58
54, 29, 35, 50
42, 38, 45, 28
45, 42, 35, 41
35, 37, 36, 50
40, 32, 35, 32
26, 29, 35, 39
26, 23, 20, 36
33, 28, 28, 28
34, 31, 27, 33
31, 31, 26, 25
30, 25, 22, 31
27, 26, 18, 18
27, 24, 20, 36
24, 20, 20, 17
22, 24, 24, 20
19, 18, 24, 19
14, 17, 23, 21
13, 23, 27, 9
15, 16, 21, 26
20, 26, 33, 18
15, 26, 28, 21
34, 38, 47, 62
66, 65, 88, 80
66, 90, 105, 327
694, 1235, 1514, 1593
1468, 984, 368, 178
113, 88, 72, 73
65, 53, 50, 51
49, 48, 44, 48
42, 46, 38, 30
31, 33, 40, 51
45, 43, 41, 39
41, 35, 36, 35
33, 44, 52, 47
41, 49, 41, 46
48, 48, 51, 53
43, 62, 55, 58
64, 47, 51, 44
49, 48, 37, 38
34, 45, 43, 43
29, 34, 27, 31
40, 23, 34, 27
23, 22, 25, 29
27, 34, 35, 47
53, 60, 62, 56
53, 49, 37, 41
36, 60, 115, 186
257, 385, 438, 438
485, 489, 488, 444
439, 464, 468, 438
468, 435, 432, 464
451, 459, 489, 461
472, 447, 456, 480
437, 454, 438, 484
531, 527, 543, 515
546, 629, 719, 881
1105, 1314, 1513, 1706
2019, 2535, 3006, 3594
4324, 5693, 12410, 31730
49021, 57546, 61121, 63506
61057, 50374, 43797, 39255
25200, 9283, 3598, 2320
1835, 1547, 1304, 1191
1074, 955, 906, 849
830, 762, 759, 777
690, 677, 621, 594
530, 570, 530, 507
506, 479, 529, 546
635, 738, 816, 875
989, 1035, 1201, 1329
1491, 1752, 1777, 1949
2097, 2207, 2273, 2441
2598, 2702, 2632, 2789
2669, 2710, 2579, 2692
2560, 2406, 2284, 2287
2124, 1894, 1835, 1734
1567, 1462, 1259, 1133
938, 871, 763, 653
603, 511, 407, 391
407, 303, 311, 309
260, 263, 266, 302
270, 308, 296, 299
290, 353, 308, 318
287, 300, 294, 253
233, 276, 262, 215
243, 208, 214, 206
195, 218, 205, 210
193, 203, 216, 228
212, 236, 201, 201
191, 203, 194, 180
184, 204, 181, 188
184, 194, 172, 167
192, 194, 150, 171
151, 167, 154, 145
164, 147, 157, 173
142, 155, 149, 138
159, 159, 160, 148
155, 145, 157, 140
138, 134, 129, 133
133, 156, 128, 155
128, 134, 140, 126
110, 127, 128, 127
122, 128, 120, 115
126, 115, 137, 95
125, 102, 118, 101
129, 119, 119, 92
114, 105, 114, 135
113, 121, 93, 129
116, 106, 109, 109
85, 104, 124, 111
114, 114, 102, 110
104, 112, 129, 112
113, 84, 101, 86
84, 96, 97, 89
94, 110, 96, 98
87, 102, 95, 89
91, 87, 90, 74
74, 90, 104, 70
86, 90, 106, 106
87, 82, 81, 89
86, 92, 94, 87
77, 75, 85, 80
73, 103, 90, 75
91, 87, 66, 81
72, 81, 74, 71
91, 59, 66, 71
85, 68, 77, 76
70, 60, 74, 85
79, 65, 72, 77
52, 78, 68, 62
72, 66, 69, 76
56, 71, 61, 60
72, 64, 61, 61
57, 75, 71, 63
64, 57, 56, 57
56, 54, 52, 61
51, 56, 50, 37
47, 56, 59, 42
47, 47, 52, 54
46, 50, 42, 46
48, 44, 53, 56
48, 43, 48, 43
56, 49, 53, 54
41, 44, 44, 35
39, 47, 38, 46
61, 36, 44, 47
45, 51, 54, 56
47, 35, 56, 45
42, 42, 55, 40
39, 39, 40, 30
38, 50, 39, 40
44, 40, 41, 35
35, 41, 29, 31
52, 45, 51, 37
48, 46, 34, 40
37, 43, 39, 49
30, 32, 27, 23
26, 32, 28, 32
33, 29, 29, 29
36, 37, 35, 29
29, 46, 43, 29
32, 20, 28, 28
33, 22, 28, 34
26, 35, 32, 20
26, 29, 32, 29
46, 29, 29, 21
27, 25, 33, 23
34, 20, 21, 25
27, 20, 28, 25
32, 23, 19, 18
22, 21, 22, 21
21, 32, 18, 23
18, 28, 24, 18
17, 22, 29, 29
24, 17, 24, 25
17, 27, 22, 20
22, 20, 24, 24
24, 28, 18, 24
21, 16, 18, 25
16, 18, 16, 17
15, 15, 15, 18
21, 25, 22, 20
16, 23, 20, 16
21, 20, 14, 17
17, 17, 9, 13
18, 22, 20, 16
19, 17, 22, 18
14, 23, 16, 10
15, 13, 12, 18
17, 22, 12, 18
13, 14, 16, 11
17, 14, 9, 19
24, 23, 15, 23
30, 25, 31, 30
19, 21, 22, 20
19, 21, 20, 15
16, 13, 14, 12
15, 15, 17, 8
13, 20, 9, 8
14, 14, 12, 13
15, 19, 10, 12
10, 15, 17, 11
14, 7, 17, 13
19, 12, 15, 12
13, 12, 11, 16
13, 14, 13, 14
12, 11, 10, 15
12, 10, 12, 12
9, 11, 9, 14
8, 14, 10, 12
10, 15, 14, 11
13, 13, 12, 14
12, 15, 13, 16
9, 10, 13, 17
13, 14, 13, 8
10, 9, 12, 8
18, 10, 10, 11
12, 16, 9, 15
9, 15, 10, 16
12, 8, 5, 12
13, 9, 7, 9
8, 15, 10, 10
10, 16, 9, 13
11, 16, 11, 16
12, 15, 6, 9
13, 17, 13, 15
8, 8, 8, 9
8, 12, 4, 8
11, 9, 9, 8
13, 9, 7, 7
7, 9, 9, 7
6, 10, 13, 15
13, 15, 7, 8
7, 11, 11, 9
7, 9, 11, 8
10, 6, 7, 13
12, 10, 10, 9
8, 12, 9, 8
15, 10, 3, 13
12, 6, 6, 7
10, 15, 9, 8
13, 11, 10, 7
10, 8, 12, 7
6, 14, 6, 15
8, 6, 11, 6
7, 12, 4, 12
10, 5, 8, 12
7, 6, 13, 3
7, 16, 5, 6
6, 7, 8, 16
8, 10, 6, 9
7, 12, 7, 12
12, 9, 5, 9
8, 14, 5, 11
9, 8, 6, 8
6, 9, 5, 6
10, 9, 10, 4
13, 11, 5, 7
14, 8, 5, 10
10, 7, 9, 8
7, 6, 10, 10
8, 7, 8, 7
7, 11, 8, 8
8, 10, 10, 6
7, 9, 8, 9
7, 5, 9, 7
5, 6, 11, 8
3, 8, 5, 2
7, 6, 9, 5
10, 1, 11, 7
16, 10, 4, 3
2, 6, 11, 9
6, 6, 6, 7
8, 12, 6, 3
12, 6, 8, 11
8, 9, 5, 5
4, 6, 5, 7
5, 9, 10, 8
9, 10, 3, 6
10, 9, 5, 9
11, 6, 11, 6
14, 7, 6, 5
6, 6, 15, 12
6, 5, 5, 6
6, 10, 6, 15
5, 12, 10, 5
8, 6, 9, 7
9, 9, 6, 11
5, 8, 8, 5
11, 6, 12, 10
7, 7, 7, 11
5, 8, 7, 6
3, 6, 8, 2
4, 12, 5, 3
5, 10, 6, 8
6, 6, 6, 6
5, 5, 7, 4
13, 4, 6, 10
7, 9, 7, 8
9, 6, 7, 1
7, 4, 7, 5
4, 3, 7, 5
7, 10, 10, 17
12, 5, 6, 7
7, 8, 4, 6
7, 10, 6, 4
8, 12, 7, 7
8, 6, 7, 8
5, 3, 4, 12
11, 12, 8, 1
5, 8, 6, 6
4, 8, 6, 5
5, 7, 8, 13
5, 5, 8, 11
9, 2, 6, 8
7, 5, 7, 10
5, 9, 6, 7
7, 8, 2, 6
3, 6, 4, 8
8, 8, 10, 8
4, 6, 12, 5
5, 7, 8, 9
7, 6, 6, 2
5, 2, 5, 11
6, 5, 4, 4
10, 4, 8, 8
3, 3, 1, 7
3, 9, 3, 5
4, 5, 2, 5
6, 11, 5, 4
2, 11, 6, 6
8, 3, 1, 2
3, 11, 4, 4
3, 7, 6, 4
7, 10, 9, 7
3, 3, 6, 8
12, 3, 9, 12
5, 6, 9, 5
4, 5, 2, 6
5, 6, 4, 2
6, 5, 10, 4
6, 7, 5, 6
8, 5, 11, 4
11, 8, 5, 7
9, 5, 6, 7
6, 5, 8, 4
5, 6, 7, 2
9, 4, 7, 2
4, 2, 7, 3
3, 6, 2, 4
6, 6, 5, 4
4, 7, 6, 6
3, 7, 4, 4
5, 5, 9, 2
4, 6, 4, 8
3, 3, 7, 7
2, 6, 6, 3
7, 4, 4, 3
1, 8, 1, 5
8, 2, 1, 4
4, 8, 4, 3
3, 2, 4, 5
10, 5, 3, 6
6, 5, 4, 3
6, 7, 4, 4
3, 7, 4, 5
11, 9, 4, 5
6, 1, 5, 3
6, 7, 1, 5
5, 7, 6, 7
15, 6, 2, 5
7, 4, 2, 6
8, 4, 3, 7
4, 3, 2, 2
5, 4, 3, 4
5, 4, 3, 4
2, 7, 3, 4
7, 6, 6, 4
4, 2, 3, 5
3, 5, 3, 7
4, 6, 4, 6
7, 7, 6, 10
5, 2, 4, 7
2, 3, 5, 8
3, 8, 5, 6
6, 4, 6, 9
3, 4, 2, 3
7, 7, 5, 4
7, 6, 5, 7
4, 8, 9, 5
4, 2, 10, 2
5, 1, 8, 3
5, 4, 6, 5
7, 4, 4, 5
2, 2, 1, 2
2, 5, 0, 1
9, 2, 5, 6
4, 2, 4, 5
10, 6, 5, 2
1, 6, 2, 3
7, 2, 6, 7
3, 6, 6, 2
3, 5, 3, 1
2, 1, 6, 1
3, 2, 1, 4
6, 2, 6, 1
6, 6, 0, 3
4, 4, 3, 5
4, 4, 5, 5
2, 7, 3, 6
0, 3, 10, 2
3, 8, 4, 4
2, 8, 6, 1
8, 2, 2, 5
5, 7, 2, 1
1, 8, 2, 0
5, 3, 5, 6
3, 7, 2, 4
4, 9, 8, 2
5, 4, 8, 4
7, 3, 1, 5
5, 3, 5, 2
2, 4, 6, 3
7, 10, 4, 3
6, 2, 5, 5
7, 7, 5, 5
4, 3, 7, 4
6, 6, 5, 8
6, 6, 5, 6
4, 4, 4, 8
2, 4, 4, 6
7, 7, 6, 4
5, 3, 7, 3
7, 4, 6, 4
6, 4, 6, 4
1, 3, 5, 4
5, 2, 5, 1
3, 4, 8, 3
12, 4, 11, 9
16, 21, 19, 16
9, 7, 9, 7
11, 16, 9, 9
6, 3, 4, 8
4, 4, 6, 6
0, 5, 4, 2
2, 4, 4, 8
3, 5, 4, 4
4, 4, 1, 3
7, 3, 2, 0
3, 6, 2, 3
5, 3, 1, 6
7, 5, 5, 3
9, 5, 3, 2
6, 6, 5, 4
1, 2, 10, 4
6, 2, 1, 1
6, 6, 6, 4
2, 4, 3, 5
4, 4, 4, 1
2, 4, 7, 4
5, 5, 3, 5
8, 3, 4, 3
5, 5, 6, 5
5, 2, 5, 3
5, 9, 6, 12
12, 6, 11, 11
9, 12, 11, 16
11, 7, 9, 12
11, 10, 16, 14
13, 15, 25, 13
18, 11, 13, 18
11, 13, 16, 14
11, 20, 16, 12
12, 11, 12, 13
10, 10, 13, 9
5, 8, 7, 3
6, 3, 4, 7
3, 7, 7, 5
5, 6, 4, 1
4, 2, 7, 4
4, 3, 6, 5
5, 4, 2, 4
3, 6, 6, 5
2, 3, 4, 4
1, 3, 2, 4
3, 2, 3, 2
3, 3, 5, 1
2, 5, 2, 4
1, 4, 5, 4
3, 4, 3, 1
5, 3, 3, 6
2, 2, 2, 4
4, 5, 7, 4
7, 4, 1, 0
1, 5, 4, 4
2, 3, 5, 2
2, 1, 3, 3
2, 5, 3, 3
5, 3, 4, 2
0, 4, 4, 3
3, 6, 2, 8
1, 3, 6, 3
2, 3, 5, 3
5, 3, 5, 1
8, 3, 6, 2
2, 4, 3, 3
0, 2, 5, 4
4, 2, 2, 2
1, 2, 2, 0
3, 3, 3, 6
2, 2, 5, 4
2, 4, 1, 7
4, 2, 3, 6
2, 5, 4, 4
1, 9, 0, 2
2, 1, 6, 3
3, 3, 6, 6
6, 3, 4, 3
4, 7, 5, 3
4, 1, 4, 6
2, 4, 2, 2
2, 5, 0, 3
1, 3, 1, 2
1, 0, 1, 5
8, 4, 3, 1
3, 4, 1, 3
1, 0, 5, 5
3, 5, 0, 4
3, 7, 1, 4
6, 6, 3, 2
4, 2, 2, 3
5, 2, 6, 5
5, 4, 4, 7
3, 4, 5, 2
7, 4, 3, 4
1, 2, 2, 8
3, 3, 4, 3
8, 4, 4, 7
1, 1, 4, 2
6, 3, 2, 4
2, 2, 2, 2
3, 6, 0, 4
3, 1, 3, 3
3, 2, 3, 3
6, 3, 5, 4
5, 3, 3, 3
4, 2, 2, 2
2, 3, 5, 1
4, 1, 1, 2
4, 4, 0, 2
3, 3, 4, 2
2, 4, 2, 5
6, 4, 1, 1
2, 1, 2, 1
6, 8, 2, 4
5, 3, 2, 2
3, 7, 2, 5
1, 6, 3, 1
1, 4, 3, 0
3, 3, 1, 4
1, 2, 4, 3
5, 3, 3, 5
5, 3, 4, 3
6, 0, 2, 0
3, 4, 2, 3
2, 6, 1, 2
4, 4, 3, 2
1, 1, 4, 3
0, 5, 2, 3
6, 2, 2, 2
1, 3, 5, 4
7, 2, 2, 4
3, 1, 3, 6
3, 1, 7, 6
2, 3, 3, 2
4, 3, 5, 1
2, 0, 2, 5
3, 4, 3, 6
3, 2, 3, 2
4, 2, 2, 5
3, 6, 2, 5
2, 7, 0, 2
1, 3, 4, 5
5, 1, 4, 6
6, 4, 2, 2
3, 2, 3, 3
3, 1, 2, 4
1, 2, 4, 5
3, 3, 4, 3
4, 3, 3, 2
6, 4, 6, 4
1, 1, 3, 2
2, 4, 8, 2
3, 2, 2, 3
3, 3, 4, 4
3, 2, 0, 1
1, 5, 5, 1
1, 0, 2, 5
4, 2, 4, 1
3, 2, 1, 5
2, 3, 1, 4
3, 3, 3, 4
5, 3, 5, 2
1, 6, 0, 5
1, 1, 5, 3
5, 5, 1, 5
2, 2, 2, 2
3, 3, 4, 2
3, 5, 2, 1
1, 1, 4, 3
0, 4, 2, 5
2, 3, 2, 3
6, 4, 4, 2
2, 3, 1, 5
1, 5, 1, 8
0, 2, 3, 4
4, 3, 3, 1
2, 2, 5, 0
2, 0, 4, 2
2, 4, 4, 1
3, 4, 2, 3
4, 2, 5, 3
0, 3, 4, 2
1, 2, 2, 4
2, 4, 3, 4
1, 1, 3, 1
2, 5, 6, 2
3, 2, 2, 2
2, 5, 3, 4
4, 8, 4, 7
4, 2, 1, 1
4, 0, 2, 2
3, 2, 3, 5
4, 2, 5, 3
2, 5, 5, 4
3, 3, 2, 0
2, 4, 2, 2
2, 3, 2, 2
2, 1, 1, 4
1, 3, 2, 4
1, 3, 1, 1
4, 1, 2, 4
3, 3, 4, 3
2, 4, 4, 0
1, 4, 2, 2
3, 6, 3, 0
5, 5, 3, 4
5, 6, 0, 5
0, 4, 1, 2
3, 2, 3, 4
2, 3, 5, 2
1, 2, 3, 2
3, 3, 1, 5
4, 4, 1, 3
2, 2, 4, 6
2, 3, 3, 3
3, 3, 6, 4
3, 4, 3, 5
5, 3, 6, 2
4, 1, 4, 2
3, 3, 2, 5
3, 1, 4, 1
6, 0, 2, 7
4, 3, 2, 1
2, 6, 1, 2
4, 3, 4, 1
3, 1, 1, 2
2, 2, 3, 2
4, 4, 0, 4
2, 5, 3, 1
3, 1, 5, 6
1, 4, 1, 6
3, 2, 2, 4
3, 6, 3, 2
1, 2, 1, 1
5, 4, 2, 4
5, 2, 0, 2
2, 4, 3, 0
3, 4, 2, 3
1, 3, 0, 5
5, 4, 2, 3
0, 4, 5, 4
9, 2, 2, 5
2, 0, 4, 4
3, 3, 5, 1
3, 1, 3, 2
5, 0, 2, 2
3, 2, 1, 1
2, 2, 5, 2
2, 2, 0, 1
3, 2, 4, 3
4, 1, 1, 3
4, 2, 2, 0
3, 1, 3, 2
3, 5, 2, 2
7, 2, 0, 8
2, 4, 4, 1
2, 2, 3, 3
4, 6, 1, 5
2, 3, 2, 6
1, 2, 2, 4
0, 5, 3, 7
5, 1, 1, 4
5, 4, 5, 1
3, 0, 1, 4
2, 4, 3, 5
1, 1, 1, 2
2, 4, 5, 3
3
*END
*EOF
