*TYPE           =  Raw
*CLASS          =  Standard measurement
*SAMPLE         =  Tm7110as
*COMMENT        =  right0000
*FNAME          =  Tm7110as.3171
*DATE           =  02-Dec-01 00:39

*GROUP_COUNT    =  1
*GONIO          =  広角ゴニオメータ, 185
*ATTACHMENT     =  標準試料ホルダー
*ASC            =  1, 0, 1, 0
*FILTER         =  使用しない
*C_MONOCHRO     =  使用しない, 0
*SLIT_NAME      =  0, 発散スリット
*SLIT_NAME      =  1, 散乱スリット
*SLIT_NAME      =  2, 受光スリット
*COUNTER        =  シンチレーションカウンタ, 0
*POS_FORMAT     =  0
*SCAN_AXIS      =  ２θ／θ
*MEAS_MODE      =  CONTINUOUS
*TARGET         =  29
*XRAY_CHAR      =  K-ALPHA1
*WAVE_LENGTH1   =  1.54056
*WAVE_LENGTH2   =  1.5444
*THICKNESS      =  0, 0
*MU             =  0, 0
*SCAN_MODE      =  2theta/theta
*SPEED_DIM      =  sec./step
*XUNIT          =  deg.
*YUNIT          =  cps
*SCALE_MODE     =  0
*REP_COUNT      =  1
*SE_COUNT       =  0
*STD_MATERIAL   =  Unknown, Unknown, 0, 0, 0, 0, 0, 0
*LATT_CONS      =  0, Unknown, Unknown, 0, 0, 0, 0, 0, 0
*SEC_COUNT      =  1
*TSPEC_SIZE     =  4
*TYPE_SPEC      =  0, 0
*TYPE_SPEC      =  1, 0
*TYPE_SPEC      =  2, 0
*TYPE_SPEC      =  3, 0
*MEMO           =  

*BEGIN
*GROUP          =  0
*START          =  10.0000   
*STOP           =  80.0000   
*STEP           =  0.0200    
*OFFSET         =  -0.0600   
*SPEED          =  0.3
*SLIT_SPEC      =  0, "1/2deg.", 0.87, 10
*SLIT_SPEC      =  1, "1/2deg.", 0.63, 20
*SLIT_SPEC      =  2, "0.6mm", 0.15, 20
*KV             =  35
*MA             =  20
*LOW            =  0
*HIGH           =  0
*CTEMPER        =  0, 0
*CTEMPER        =  1, 0
*CTEMPER        =  2, 0
*PAREX          =  0, 0
*PAREX          =  1, 0
*PAREX          =  2, 0
*PAREX          =  3, 0
*PAREX          =  4, 0
*PAREX          =  5, 0
*PAREX          =  6, 0
*PAREX          =  7, 0
*PAREX          =  8, 0
*PAREX          =  9, 0
*PAREX          =  10, 0
*PAREX          =  11, 0
*PAREX          =  12, 0
*PAREX          =  13, 10
*PAREX          =  14, 0.01
*PAREX          =  15, 0
*FULL_SCALE     =  1000
*EXTRA_SIZE     =  4
*EXTRA          =  0, 0
*EXTRA          =  1, 0
*EXTRA          =  2, 0
*EXTRA          =  3, 0
*INDEX          =  0, 0, 0
*COUNT          =  3501
9, 21, 16, 19
18, 13, 14, 16
15, 15, 19, 15
21, 27, 15, 23
20, 24, 20, 24
20, 19, 18, 26
32, 24, 24, 23
21, 24, 23, 26
17, 18, 20, 22
27, 24, 15, 17
17, 24, 20, 23
16, 10, 14, 8
6, 8, 17, 7
18, 10, 15, 12
12, 8, 10, 6
19, 5, 11, 12
11, 8, 5, 13
6, 11, 10, 14
14, 22, 13, 11
10, 15, 21, 14
17, 10, 9, 15
13, 12, 10, 13
16, 10, 9, 11
8, 12, 13, 15
14, 6, 12, 4
13, 11, 12, 10
12, 14, 12, 15
12, 15, 11, 13
16, 11, 12, 6
14, 7, 15, 8
10, 11, 10, 12
10, 14, 10, 17
7, 15, 12, 10
10, 13, 8, 10
12, 10, 13, 19
17, 12, 11, 8
10, 12, 13, 13
14, 14, 6, 17
6, 7, 13, 10
9, 9, 15, 14
10, 9, 11, 9
13, 17, 7, 11
10, 17, 9, 15
11, 13, 15, 11
16, 13, 11, 15
15, 18, 15, 9
12, 15, 13, 11
19, 17, 11, 7
11, 13, 18, 16
13, 15, 18, 12
17, 16, 21, 12
13, 13, 19, 17
13, 16, 11, 17
7, 10, 15, 17
15, 13, 18, 15
19, 13, 17, 13
14, 16, 21, 10
26, 18, 15, 14
10, 16, 19, 20
17, 15, 13, 17
11, 11, 15, 11
6, 16, 19, 14
14, 14, 14, 17
20, 14, 13, 26
23, 19, 17, 24
22, 19, 18, 16
15, 18, 18, 22
20, 18, 13, 21
17, 17, 13, 14
17, 15, 22, 14
22, 19, 15, 19
17, 14, 14, 21
20, 21, 21, 10
23, 30, 26, 17
17, 30, 16, 18
28, 24, 13, 20
30, 19, 18, 15
20, 19, 24, 22
27, 17, 20, 20
19, 22, 20, 31
33, 17, 25, 17
17, 21, 18, 36
23, 29, 28, 35
19, 19, 33, 27
19, 31, 29, 18
24, 32, 26, 24
29, 33, 25, 35
28, 31, 31, 37
33, 25, 22, 30
36, 41, 45, 39
38, 30, 25, 26
35, 28, 35, 29
36, 34, 35, 30
36, 35, 37, 37
34, 43, 44, 38
33, 34, 40, 51
34, 41, 34, 32
45, 51, 35, 34
41, 31, 38, 46
46, 36, 37, 45
37, 51, 34, 50
47, 39, 40, 62
39, 48, 57, 50
58, 38, 44, 49
52, 57, 48, 59
48, 57, 59, 56
48, 58, 55, 53
57, 54, 58, 56
62, 64, 62, 57
44, 64, 69, 67
60, 62, 66, 62
65, 60, 51, 73
63, 57, 75, 55
60, 71, 80, 57
64, 59, 66, 60
94, 84, 78, 81
50, 74, 90, 82
61, 70, 78, 97
69, 71, 88, 90
82, 90, 62, 87
63, 96, 91, 87
84, 81, 93, 75
103, 119, 104, 87
103, 103, 114, 75
97, 90, 103, 104
90, 118, 105, 106
95, 103, 106, 99
101, 111, 100, 106
106, 109, 103, 95
101, 108, 128, 122
109, 102, 120, 113
133, 120, 136, 123
115, 126, 120, 121
131, 119, 114, 137
138, 124, 135, 133
123, 130, 106, 151
131, 144, 126, 144
143, 122, 145, 139
141, 122, 135, 128
132, 118, 143, 140
143, 134, 116, 157
123, 139, 151, 132
149, 158, 140, 130
171, 135, 139, 153
146, 159, 156, 120
147, 158, 135, 139
150, 175, 150, 139
150, 169, 201, 188
155, 159, 168, 155
153, 155, 147, 148
166, 182, 174, 143
157, 163, 158, 166
161, 162, 169, 170
158, 172, 150, 180
186, 171, 181, 170
166, 187, 178, 157
176, 178, 180, 180
169, 204, 180, 181
175, 180, 167, 174
164, 179, 197, 172
182, 186, 169, 179
164, 162, 186, 181
186, 171, 175, 191
164, 181, 179, 171
192, 174, 191, 188
182, 164, 180, 184
201, 170, 201, 189
201, 212, 208, 215
207, 203, 220, 199
198, 183, 201, 203
224, 229, 190, 205
206, 176, 203, 196
176, 220, 156, 209
174, 221, 184, 184
221, 201, 216, 194
220, 185, 209, 196
215, 212, 199, 205
224, 206, 206, 183
202, 192, 217, 186
228, 195, 206, 199
188, 193, 222, 194
216, 191, 208, 198
219, 226, 209, 188
217, 177, 197, 195
190, 202, 207, 174
211, 217, 211, 174
182, 203, 189, 218
207, 226, 198, 213
209, 202, 193, 185
186, 200, 177, 171
216, 207, 204, 199
217, 224, 208, 191
221, 197, 187, 213
215, 204, 199, 189
183, 181, 205, 186
219, 175, 205, 196
189, 191, 185, 189
205, 182, 185, 207
196, 210, 190, 198
186, 199, 202, 185
193, 215, 186, 201
185, 221, 205, 215
191, 152, 184, 188
219, 209, 189, 214
184, 204, 203, 193
197, 185, 182, 184
187, 200, 180, 178
200, 166, 177, 185
188, 184, 196, 210
166, 206, 172, 175
201, 189, 189, 201
165, 193, 200, 202
178, 181, 169, 189
151, 196, 176, 143
159, 184, 198, 188
179, 179, 161, 186
193, 166, 163, 167
173, 205, 170, 150
168, 193, 151, 182
179, 175, 173, 187
162, 157, 188, 169
167, 176, 151, 148
164, 170, 159, 187
178, 158, 180, 165
172, 179, 164, 187
163, 172, 166, 137
160, 143, 164, 149
149, 156, 171, 149
160, 173, 151, 175
141, 157, 154, 152
159, 162, 152, 154
163, 143, 150, 169
157, 168, 154, 140
190, 175, 167, 173
177, 164, 185, 184
169, 184, 186, 193
210, 205, 232, 262
270, 239, 210, 264
242, 258, 219, 239
254, 235, 266, 259
275, 251, 265, 217
248, 226, 246, 240
208, 187, 195, 196
176, 165, 180, 174
162, 149, 156, 134
143, 118, 137, 121
147, 124, 142, 118
141, 127, 130, 140
112, 124, 128, 109
138, 126, 129, 99
117, 107, 131, 117
119, 101, 113, 118
108, 96, 81, 111
119, 115, 111, 108
112, 126, 113, 89
109, 110, 141, 116
121, 111, 107, 109
110, 97, 116, 98
95, 99, 103, 110
89, 124, 123, 102
113, 89, 89, 101
106, 98, 114, 98
106, 109, 93, 86
90, 108, 96, 99
98, 90, 93, 78
78, 113, 95, 94
75, 94, 84, 92
94, 93, 82, 82
96, 87, 85, 76
89, 81, 95, 82
90, 82, 74, 87
87, 77, 76, 84
98, 100, 80, 87
98, 101, 75, 91
84, 89, 77, 83
73, 81, 88, 71
74, 74, 74, 83
86, 82, 90, 85
75, 64, 91, 58
65, 67, 80, 79
61, 77, 59, 78
66, 65, 74, 59
62, 66, 72, 60
68, 66, 74, 80
69, 47, 64, 66
63, 73, 63, 74
90, 88, 106, 94
94, 105, 75, 77
70, 65, 71, 61
56, 61, 67, 62
65, 71, 57, 56
60, 61, 53, 52
56, 68, 56, 45
52, 57, 66, 59
53, 57, 55, 57
40, 40, 53, 47
56, 37, 54, 57
46, 51, 37, 47
48, 48, 48, 39
45, 51, 47, 39
47, 52, 32, 55
46, 40, 48, 45
43, 43, 42, 37
39, 57, 50, 44
51, 46, 36, 46
37, 54, 38, 38
36, 43, 41, 49
36, 38, 46, 35
42, 36, 31, 36
35, 36, 39, 36
34, 35, 27, 41
41, 40, 43, 35
28, 41, 32, 38
47, 44, 46, 22
29, 47, 36, 36
35, 35, 37, 33
33, 26, 35, 30
27, 38, 29, 20
41, 32, 37, 26
33, 30, 24, 32
29, 26, 36, 27
26, 26, 28, 31
36, 38, 26, 35
26, 22, 34, 39
39, 26, 39, 30
24, 25, 29, 21
24, 31, 26, 39
30, 24, 22, 20
22, 33, 26, 38
20, 22, 26, 25
21, 23, 26, 24
24, 22, 20, 26
24, 40, 28, 31
23, 32, 26, 25
20, 23, 23, 23
26, 27, 30, 17
13, 23, 31, 36
21, 26, 21, 19
27, 24, 21, 25
30, 18, 28, 18
24, 20, 19, 22
26, 21, 26, 22
24, 26, 21, 29
37, 40, 33, 49
48, 64, 40, 35
22, 33, 21, 25
21, 14, 18, 30
12, 14, 21, 17
17, 15, 14, 19
12, 10, 14, 13
28, 18, 34, 22
30, 30, 17, 29
17, 23, 11, 21
12, 23, 22, 15
10, 8, 16, 12
25, 17, 12, 21
17, 13, 16, 18
17, 25, 27, 33
41, 63, 62, 62
75, 49, 26, 27
10, 10, 12, 26
18, 22, 18, 18
21, 24, 17, 19
19, 14, 17, 20
15, 11, 16, 18
19, 17, 16, 18
24, 18, 14, 29
10, 13, 15, 16
18, 18, 15, 14
14, 14, 13, 12
8, 15, 5, 9
16, 15, 16, 20
8, 19, 20, 18
15, 20, 15, 15
24, 20, 8, 15
9, 22, 19, 7
17, 18, 11, 19
11, 9, 4, 11
14, 12, 13, 11
11, 13, 9, 19
15, 18, 16, 18
13, 12, 5, 17
13, 20, 18, 11
16, 16, 18, 12
10, 9, 16, 18
13, 16, 19, 11
13, 11, 8, 14
12, 10, 8, 18
14, 13, 11, 16
7, 15, 9, 10
16, 18, 18, 10
10, 10, 15, 17
11, 18, 17, 12
8, 16, 17, 12
15, 19, 1, 6
14, 13, 13, 10
14, 14, 17, 14
18, 13, 30, 34
30, 38, 32, 20
19, 21, 26, 26
35, 41, 35, 36
46, 61, 131, 245
476, 644, 727, 772
584, 362, 168, 78
57, 49, 32, 30
36, 32, 28, 27
25, 32, 29, 28
24, 20, 15, 21
34, 15, 24, 20
16, 18, 14, 32
21, 17, 23, 20
20, 13, 14, 16
16, 19, 17, 17
16, 20, 16, 19
25, 30, 26, 17
15, 22, 17, 12
22, 16, 17, 12
21, 26, 10, 12
13, 19, 14, 13
12, 12, 15, 15
19, 21, 15, 21
16, 17, 12, 18
12, 16, 12, 12
12, 16, 19, 14
19, 22, 17, 14
20, 15, 20, 5
21, 20, 17, 19
18, 18, 20, 9
14, 17, 13, 20
12, 17, 16, 19
27, 22, 17, 17
17, 12, 21, 13
15, 10, 16, 17
12, 18, 14, 14
19, 19, 20, 19
25, 18, 14, 29
30, 19, 32, 35
24, 19, 13, 25
19, 13, 23, 23
18, 13, 29, 21
25, 36, 53, 61
83, 111, 126, 143
121, 151, 135, 143
129, 137, 124, 139
139, 119, 145, 140
129, 134, 122, 150
155, 113, 116, 146
133, 126, 127, 136
121, 141, 122, 149
147, 143, 119, 124
145, 139, 147, 140
144, 124, 143, 147
151, 117, 145, 153
154, 145, 143, 135
147, 154, 145, 143
170, 181, 167, 177
168, 175, 189, 210
193, 218, 228, 231
273, 318, 358, 487
616, 802, 958, 1105
1194, 1238, 1321, 1527
1963, 2952, 6872, 18536
29757, 34306, 35914, 35673
28012, 18590, 18206, 20268
21028, 20876, 16661, 8417
3282, 1598, 1127, 801
669, 579, 429, 427
374, 342, 310, 311
281, 231, 257, 223
222, 247, 170, 211
197, 181, 172, 166
183, 151, 163, 165
145, 154, 176, 125
143, 132, 122, 122
125, 125, 118, 111
119, 111, 121, 98
93, 101, 115, 109
116, 119, 102, 102
113, 94, 110, 106
102, 97, 85, 109
96, 96, 78, 86
94, 82, 87, 97
90, 114, 85, 90
94, 84, 101, 80
78, 80, 82, 87
92, 86, 61, 66
76, 78, 91, 88
81, 62, 78, 73
71, 83, 73, 67
69, 71, 83, 71
67, 73, 79, 79
55, 56, 62, 68
74, 74, 65, 66
57, 62, 70, 72
64, 63, 63, 57
58, 70, 61, 60
52, 56, 56, 52
58, 72, 52, 69
65, 55, 53, 46
56, 53, 56, 53
50, 65, 55, 59
53, 66, 52, 52
53, 60, 49, 45
66, 66, 52, 60
50, 55, 46, 58
57, 61, 44, 59
52, 59, 48, 53
56, 36, 53, 50
57, 56, 47, 64
68, 42, 53, 42
46, 39, 53, 60
44, 49, 50, 48
61, 45, 50, 50
59, 45, 46, 53
54, 54, 38, 42
54, 44, 41, 41
46, 42, 38, 46
39, 46, 37, 42
43, 46, 39, 42
40, 40, 52, 48
44, 58, 45, 39
39, 43, 38, 33
34, 46, 54, 46
39, 49, 29, 45
37, 38, 39, 34
44, 43, 43, 40
43, 34, 41, 41
39, 46, 35, 34
27, 33, 41, 41
20, 35, 33, 27
40, 28, 34, 47
31, 37, 37, 32
34, 38, 34, 31
33, 28, 40, 33
38, 28, 32, 39
24, 32, 35, 31
33, 29, 25, 32
32, 33, 26, 31
25, 25, 27, 32
33, 36, 23, 23
31, 30, 26, 31
42, 30, 44, 31
26, 30, 29, 32
30, 24, 36, 25
25, 21, 25, 32
19, 33, 35, 29
35, 30, 20, 21
26, 25, 27, 34
25, 22, 25, 26
25, 29, 32, 36
32, 30, 31, 24
35, 25, 23, 24
28, 26, 34, 24
29, 20, 20, 23
21, 20, 21, 29
23, 25, 27, 26
33, 23, 34, 23
18, 25, 23, 29
23, 13, 31, 24
18, 23, 27, 21
27, 23, 17, 21
18, 25, 30, 27
19, 16, 23, 23
21, 22, 22, 23
32, 24, 18, 24
30, 18, 29, 30
34, 19, 21, 23
35, 16, 27, 21
25, 20, 22, 32
19, 18, 23, 16
23, 32, 21, 21
23, 29, 22, 18
23, 17, 15, 21
23, 19, 22, 18
19, 20, 16, 22
13, 17, 16, 31
19, 10, 22, 13
23, 19, 19, 20
21, 19, 22, 13
23, 22, 18, 21
13, 26, 25, 15
21, 18, 17, 19
31, 22, 19, 14
13, 27, 23, 16
13, 21, 24, 29
24, 18, 21, 19
22, 15, 20, 19
19, 21, 20, 13
18, 19, 14, 15
22, 15, 14, 22
20, 19, 15, 17
16, 26, 21, 28
14, 20, 13, 17
19, 16, 13, 18
24, 19, 11, 14
14, 21, 16, 22
21, 23, 26, 19
18, 24, 20, 14
22, 15, 13, 13
24, 24, 18, 12
15, 25, 16, 18
22, 13, 23, 19
27, 24, 18, 14
18, 18, 16, 17
27, 18, 16, 20
18, 22, 13, 16
23, 15, 19, 14
22, 6, 20, 18
13, 16, 13, 23
7, 18, 17, 16
16, 10, 9, 14
18, 13, 14, 9
8, 16, 16, 13
16, 15, 21, 8
10, 7, 13, 13
8, 9, 13, 9
13, 13, 15, 5
19, 18, 14, 11
9, 22, 7, 14
11, 11, 9, 7
12, 13, 13, 8
13, 11, 12, 16
21, 13, 7, 8
15, 16, 19, 13
6, 8, 14, 14
8, 9, 14, 12
12, 9, 13, 7
13, 8, 13, 19
21, 13, 14, 13
6, 8, 13, 12
17, 12, 17, 8
10, 10, 10, 14
12, 12, 13, 16
10, 13, 17, 16
15, 11, 12, 15
11, 11, 12, 8
12, 11, 14, 10
11, 9, 12, 12
5, 11, 7, 9
15, 8, 14, 7
14, 7, 5, 7
12, 7, 9, 8
7, 7, 11, 5
8, 10, 12, 6
9, 12, 13, 6
12, 11, 11, 5
7, 13, 6, 5
10, 8, 13, 10
6, 14, 4, 8
10, 6, 10, 10
11, 8, 5, 10
5, 12, 5, 12
10, 9, 11, 10
10, 8, 8, 11
4, 9, 5, 10
5, 5, 5, 4
8, 13, 6, 13
10, 9, 10, 7
7, 5, 5, 14
6, 7, 10, 10
6, 14, 6, 6
12, 8, 9, 8
9, 6, 3, 7
6, 6, 6, 9
11, 5, 5, 7
5, 4, 7, 5
7, 8, 8, 12
7, 3, 5, 9
9, 1, 7, 10
7, 6, 5, 11
5, 3, 7, 4
5, 5, 7, 6
6, 7, 7, 7
5, 7, 11, 8
4, 7, 7, 5
5, 5, 9, 8
4, 7, 11, 3
6, 9, 3, 5
6, 6, 4, 8
5, 6, 7, 6
5, 2, 7, 8
5, 3, 9, 4
4, 3, 7, 5
5, 6, 2, 3
5, 3, 3, 4
10, 7, 5, 7
8, 9, 0, 11
4, 3, 2, 6
5, 2, 6, 6
13, 6, 0, 7
5, 6, 4, 6
7, 6, 11, 5
6, 7, 3, 6
9, 6, 5, 4
5, 8, 5, 7
8, 6, 2, 8
5, 3, 8, 6
8, 9, 4, 2
3, 4, 7, 4
4, 4, 6, 4
7, 7, 9, 9
8, 7, 9, 9
6, 7, 6, 7
4, 5, 4, 1
5, 3, 7, 5
5, 6, 5, 7
3, 5, 1, 11
7, 6, 6, 8
6, 6, 4, 9
5, 5, 6, 6
7, 8, 5, 3
5, 3, 7, 2
4, 2, 4, 7
9, 4, 4, 3
6, 4, 3, 9
4, 0, 4, 4
6, 4, 5, 6
5, 6, 3, 7
6, 6, 4, 3
5, 2, 5, 7
4, 2, 4, 6
8, 1, 3, 3
8, 4, 4, 7
3, 3, 3, 2
1, 4, 3, 3
4, 2, 7, 6
2, 7, 6, 6
3, 6, 6, 7
3, 6, 6, 3
5, 4, 5, 2
1, 6, 2, 5
3, 8, 5, 9
3, 3, 8, 2
5, 3, 6, 1
5, 3, 6, 2
3, 3, 1, 6
3, 4, 1, 5
6, 5, 3, 4
1, 7, 0, 2
4, 4, 7, 5
6, 6, 6, 5
7, 5, 6, 2
2, 2, 3, 5
3, 3, 1, 5
2, 8, 7, 4
7, 4, 2, 2
3, 7, 6, 5
8, 4, 1, 4
5, 8, 4, 3
7, 1, 5, 3
6, 2, 4, 6
5, 5, 1, 7
4, 3, 2, 4
6, 4, 3, 3
4, 6, 2, 1
5, 4, 4, 1
5, 4, 3, 1
2, 2, 6, 4
3, 5, 5, 3
6, 4, 2, 5
2, 2, 5, 1
9, 4, 4, 6
1, 4, 2, 5
4, 5, 6, 1
5, 1, 8, 2
2, 5, 3, 4
4, 3, 6, 3
4, 1, 2, 1
2, 6, 3, 3
1, 10, 4, 6
8, 4, 3, 2
7, 6, 3, 4
7, 5, 4, 4
2, 1, 4, 2
5, 2, 4, 4
6, 2, 1, 7
5, 4, 1, 1
2, 4, 5, 3
2, 5, 4, 3
0, 2, 5, 2
5, 1, 1, 5
2, 2, 3, 4
5, 3, 6, 4
2, 6, 2, 2
5, 2, 3, 2
2, 4, 2, 4
1, 7, 7, 5
4, 3, 3, 1
2, 4, 5, 5
1, 3, 4, 3
3, 3, 0, 3
0, 2, 0, 5
2, 5, 3, 6
1, 4, 1, 9
6, 1, 2, 2
3, 5, 1, 3
8, 1, 2, 4
6, 2, 1, 1
2, 2, 3, 5
6, 2, 3, 2
3, 9, 4, 6
8, 3, 7, 0
3, 3, 4, 5
1, 3, 5, 4
8, 2, 4, 4
2, 4, 4, 6
1, 2, 3, 4
5, 3, 7, 3
2, 7, 4, 3
5, 1, 2, 4
4, 3, 6, 3
4, 5, 11, 1
3, 4, 4, 6
4, 4, 4, 5
4, 5, 1, 3
4, 3, 2, 0
5, 0, 4, 1
1, 4, 2, 6
2, 3, 5, 6
1, 3, 1, 3
4, 2, 3, 6
4, 2, 1, 9
1, 2, 5, 2
4, 3, 2, 3
3, 4, 3, 5
1, 6, 5, 4
2, 1, 7, 4
3, 2, 4, 4
8, 0, 5, 5
3, 4, 2, 3
5, 4, 4, 1
3, 5, 4, 3
3, 3, 2, 4
4, 6, 2, 4
1, 7, 5, 4
3, 5, 5, 4
3, 4, 0, 4
3, 2, 2, 4
4, 4, 1, 2
5, 1, 2, 4
4, 3, 0, 2
5, 4, 3, 4
2, 3, 4, 5
4, 2, 3, 2
1, 1, 3, 2
3, 4, 4, 2
8, 3, 5, 4
4, 6, 3, 5
2, 1, 7, 7
1, 2, 4, 1
0, 1, 2, 3
4, 2, 1, 3
4, 4, 3, 4
0, 2, 2, 5
0, 2, 4, 4
0, 3, 3, 1
2, 1, 7, 1
4, 4, 1, 4
3, 5, 5, 1
1, 0, 1, 0
2, 1, 3, 3
2, 3, 2, 3
2, 1, 2, 2
3, 1, 2, 3
7, 1, 3, 2
2, 5, 4, 1
1, 3, 5, 1
4, 1, 2, 3
1, 2, 4, 2
3, 3, 3, 4
4, 1, 5, 4
2, 1, 2, 3
5, 1, 0, 1
7, 5, 2, 5
5, 3, 4, 4
4
*END
*EOF
